ECG
0.1010
0.1010
0.1010
0.1034
0.1034
0.1034
0.1034
0.1058
0.1058
0.1058
0.1058
0.1058
0.1058
0.1058
0.1082
0.1082
0.1082
0.1058
0.1058
0.1058
0.1058
0.1058
0.1058
0.1058
0.1058
0.1058
0.1058
0.1058
0.1058
0.1058
0.1058
0.1058
0.1058
0.1058
0.1058
0.1058
0.1058
0.1058
0.1058
0.1082
0.1082
0.1082
0.1082
0.1082
0.1082
0.1082
0.1082
0.1082
0.1082
0.1082
0.1082
0.1082
0.1082
0.1082
0.1082
0.1106
0.1106
0.1106
0.1106
0.1106
0.1106
0.1106
0.1106
0.1130
0.1130
0.1130
0.1130
0.1130
0.1130
0.1130
0.1130
0.1130
0.1130
0.1130
0.1130
0.1154
0.1154
0.1178
0.1178
0.1202
0.1226
0.1250
0.1274
0.1298
0.1298
0.1322
0.1346
0.1370
0.1370
0.1394
0.1418
0.1418
0.1442
0.1466
0.1490
0.1514
0.1538
0.1563
0.1563
0.1587
0.1587
0.1587
0.1587
0.1563
0.1563
0.1538
0.1538
0.1514
0.1514
0.1490
0.1490
0.1490
0.1466
0.1442
0.1418
0.1394
0.1370
0.1322
0.1274
0.1226
0.1178
0.1130
0.1082
0.1058
0.1034
0.1010
0.0986
0.0962
0.0962
0.0962
0.0938
0.0938
0.0938
0.0938
0.0938
0.0962
0.0962
0.0962
0.0962
0.0962
0.0962
0.0962
0.0986
0.0986
0.0986
0.0986
0.0962
0.0962
0.0938
0.0913
0.0889
0.0865
0.0865
0.0889
0.0986
0.1130
0.1370
0.1755
0.2260
0.2933
0.3702
0.4615
0.5577
0.6587
0.7548
0.8438
0.9159
0.9663
0.9904
0.9856
0.9495
0.8870
0.8005
0.6995
0.5889
0.4784
0.3750
0.2813
0.1995
0.1370
0.0889
0.0553
0.0337
0.0192
0.0096
0.0072
0.0096
0.0120
0.0168
0.0192
0.0216
0.0264
0.0264
0.0288
0.0313
0.0313
0.0337
0.0337
0.0337
0.0337
0.0361
0.0361
0.0361
0.0361
0.0385
0.0385
0.0409
0.0409
0.0409
0.0433
0.0433
0.0433
0.0457
0.0457
0.0481
0.0481
0.0481
0.0481
0.0505
0.0505
0.0505
0.0505
0.0505
0.0505
0.0505
0.0529
0.0529
0.0529
0.0529
0.0553
0.0553
0.0577
0.0577
0.0577
0.0577
0.0577
0.0601
0.0601
0.0601
0.0601
0.0601
0.0601
0.0625
0.0625
0.0625
0.0625
0.0625
0.0649
0.0649
0.0649
0.0649
0.0673
0.0673
0.0673
0.0673
0.0697
0.0697
0.0697
0.0721
0.0721
0.0745
0.0745
0.0769
0.0769
0.0793
0.0793
0.0817
0.0817
0.0841
0.0865
0.0865
0.0865
0.0889
0.0889
0.0913
0.0913
0.0938
0.0938
0.0962
0.0986
0.1010
0.1034
0.1058
0.1082
0.1106
0.1130
0.1154
0.1178
0.1202
0.1226
0.1250
0.1274
0.1298
0.1322
0.1346
0.1370
0.1394
0.1418
0.1442
0.1466
0.1490
0.1514
0.1538
0.1538
0.1563
0.1587
0.1611
0.1611
0.1635
0.1635
0.1659
0.1659
0.1659
0.1683
0.1683
0.1683
0.1707
0.1707
0.1707
0.1707
0.1683
0.1683
0.1683
0.1659
0.1659
0.1635
0.1635
0.1635
0.1635
0.1611
0.1611
0.1587
0.1587
0.1563
0.1538
0.1514
0.1490
0.1466
0.1442
0.1418
0.1370
0.1346
0.1322
0.1274
0.1250
0.1202
0.1178
0.1154
0.1130
0.1106
0.1082
0.1058
0.1034
0.1010
0.1010
0.0986
0.0962
0.0938
0.0938
0.0913
0.0913
0.0889
0.0889
0.0865
0.0865
0.0865
0.0841
0.0841
0.0817
0.0817
0.0817
0.0793
0.0793
0.0793
0.0793
0.0769
0.0769
0.0769
0.0769
0.0793
0.0793
0.0793
0.0793
0.0817
0.0817
0.0817
0.0841
0.0841
0.0841
0.0841
0.0841
0.0841
0.0841
0.0841
0.0865
0.0865
0.0865
0.0865
0.0865
0.0865
0.0865
0.0865
0.0889
0.0889
0.0889
0.0889
0.0889
0.0913
0.0913
0.0913
0.0938
0.0938
0.0938
0.0962
0.0962
0.0962
0.0986
0.0986
0.0986
0.1010
0.1010
0.1010
0.1034
0.1034
0.1034
0.1034
0.1058
0.1058
0.1058
0.1058
0.1082
0.1082
0.1082
0.1106
0.1106
0.1106
0.1106
0.1106
0.1106
0.1106
0.1106
0.1106
0.1130
0.1130
0.1130
0.1130
0.1130
0.1130
0.1130
0.1154
0.1154
0.1130
0.1130
0.1130
0.1130
0.1106
0.1106
0.1106
0.1082
0.1082
0.1082
0.1082
0.1058
0.1058
0.1058
0.1034
0.1034
0.1034
0.1034
0.1034
0.1034
0.1034
0.1034
0.1034
0.1034
0.1034
0.1034
0.1034
0.1034
0.1034
0.1034
0.1034
0.1034
0.1010
0.1010
0.1010
0.1010
0.1010
0.1010
0.1010
0.1010
0.1010
0.1010
0.1010
0.0986
0.0986
0.0986
0.0986
0.0986
0.0986
0.0986
0.0986
0.0986
0.0986
0.0986
0.0986
0.1010
0.1010
0.0986
0.0986
0.0986
0.0986
0.0986
0.0986
0.0986
0.0986
0.0986
0.0986
0.0986
0.0986
0.0986
0.0986
0.0986
0.0986
0.0986
0.0986
0.0986
0.0986
0.0986
0.0986
0.1010
0.1010
0.1010
0.1010
0.1010
0.1010
0.1010
0.1010
0.1034
0.1034
0.1034
0.1034
0.1034
0.1034
0.1034
0.1034
0.1034
0.1034
0.1034
0.1034
0.1034
0.1034
0.1034
0.1034
0.1034
0.1010
0.1010
0.1010
0.1034
0.1010
0.1010
0.1034
0.1034
0.1034
0.1010
0.1034
0.1034
0.1010
0.1010
0.1010
0.1010
0.1010
0.1010
0.1010
0.1034
0.1034
0.1034
0.1034
0.1034
0.1034
0.1034
0.1034
0.1034
0.1034
0.1034
0.1058
0.1058
0.1058
0.1058
0.1058
0.1058
0.1058
0.1082
0.1082
0.1082
0.1082
0.1082
0.1106
0.1106
0.1106
0.1130
0.1130
0.1154
0.1178
0.1202
0.1202
0.1226
0.1250
0.1274
0.1298
0.1298
0.1322
0.1346
0.1346
0.1370
0.1370
0.1394
0.1418
0.1442
0.1466
0.1466
0.1490
0.1514
0.1514
0.1514
0.1514
0.1514
0.1490
0.1490
0.1466
0.1466
0.1442
0.1442
0.1418
0.1418
0.1394
0.1370
0.1346
0.1298
0.1274
0.1226
0.1178
0.1130
0.1106
0.1058
0.1034
0.1010
0.0986
0.0962
0.0962
0.0938
0.0938
0.0913
0.0913
0.0913
0.0889
0.0889
0.0889
0.0889
0.0889
0.0913
0.0913
0.0913
0.0913
0.0938
0.0938
0.0938
0.0938
0.0938
0.0938
0.0913
0.0889
0.0889
0.0865
0.0865
0.0865
0.0865
0.0938
0.1058
0.1250
0.1563
0.1971
0.2524
0.3173
0.3942
0.4808
0.5721
0.6635
0.7524
0.8269
0.8870
0.9255
0.9327
0.9135
0.8654
0.7933
0.7019
0.5986
0.4904
0.3846
0.2909
0.2091
0.1418
0.0913
0.0577
0.0337
0.0192
0.0096
0.0072
0.0096
0.0120
0.0168
0.0216
0.0240
0.0288
0.0313
0.0337
0.0361
0.0361
0.0361
0.0385
0.0385
0.0385
0.0409
0.0409
0.0409
0.0409
0.0433
0.0433
0.0433
0.0433
0.0457
0.0457
0.0481
0.0481
0.0505
0.0505
0.0505
0.0529
0.0529
0.0529
0.0529
0.0553
0.0553
0.0553
0.0577
0.0577
0.0577
0.0601
0.0601
0.0601
0.0601
0.0601
0.0601
0.0601
0.0601
0.0601
0.0601
0.0625
0.0625
0.0625
0.0625
0.0625
0.0649
0.0649
0.0649
0.0649
0.0673
0.0673
0.0673
0.0673
0.0697
0.0697
0.0697
0.0697
0.0721
0.0721
0.0721
0.0745
0.0745
0.0745
0.0769
0.0769
0.0793
0.0793
0.0793
0.0817
0.0817
0.0841
0.0841
0.0865
0.0865
0.0889
0.0889
0.0913
0.0938
0.0962
0.0986
0.0986
0.1010
0.1034
0.1034
0.1058
0.1058
0.1082
0.1082
0.1106
0.1130
0.1154
0.1178
0.1202
0.1226
0.1250
0.1274
0.1298
0.1346
0.1370
0.1394
0.1442
0.1466
0.1490
0.1538
0.1563
0.1587
0.1611
0.1635
0.1659
0.1683
0.1707
0.1707
0.1731
0.1755
0.1779
0.1779
0.1803
0.1803
0.1827
0.1827
0.1851
0.1851
0.1851
0.1875
0.1875
0.1875
0.1875
0.1875
0.1851
0.1851
0.1851
0.1827
0.1827
0.1803
0.1803
0.1779
0.1755
0.1731
0.1707
0.1659
0.1635
0.1587
0.1563
0.1514
0.1490
0.1442
0.1418
0.1370
0.1346
0.1298
0.1250
0.1226
0.1178
0.1130
0.1106
0.1058
0.1034
0.1010
0.0986
0.0962
0.0938
0.0913
0.0913
0.0889
0.0865
0.0865
0.0841
0.0841
0.0817
0.0817
0.0793
0.0793
0.0793
0.0769
0.0769
0.0769
0.0769
0.0769
0.0769
0.0745
0.0745
0.0745
0.0745
0.0745
0.0745
0.0745
0.0745
0.0745
0.0745
0.0745
0.0745
0.0745
0.0745
0.0745
0.0745
0.0745
0.0769
0.0769
0.0769
0.0769
0.0769
0.0793
0.0793
0.0793
0.0793
0.0793
0.0817
0.0817
0.0817
0.0841
0.0841
0.0841
0.0865
0.0865
0.0865
0.0865
0.0865
0.0889
0.0889
0.0889
0.0889
0.0913
0.0913
0.0938
0.0938
0.0938
0.0962
0.0962
0.0962
0.0986
0.0986
0.1010
0.1010
0.1010
0.1034
0.1034
0.1034
0.1058
0.1058
0.1058
0.1082
0.1082
0.1082
0.1082
0.1082
0.1106
0.1106
0.1106
0.1106
0.1106
0.1106
0.1106
0.1106
0.1106
0.1106
0.1106
0.1106
0.1082
0.1082
0.1082
0.1082
0.1082
0.1082
0.1082
0.1082
0.1058
0.1058
0.1058
0.1058
0.1058
0.1034
0.1034
0.1034
0.1034
0.1034
0.1010
0.1010
0.1010
0.1010
0.1010
0.1010
0.0986
0.0986
0.0986
0.0986
0.0986
0.1010
0.1010
0.1010
0.1010
0.1010
0.0986
0.0986
0.0986
0.0986
0.0986
0.0986
0.0986
0.0986
0.0986
0.0986
0.0986
0.0986
0.0986
0.0986
0.0986
0.0986
0.0986
0.0986
0.0986
0.0962
0.0962
0.0962
0.0962
0.0962
0.0962
0.0962
0.0962
0.0962
0.0986
0.0986
0.0986
0.0986
0.0986
0.0986
0.0986
0.0986
0.0986
0.0986
0.0986
0.0986
0.0986
0.0986
0.0986
0.0986
0.0986
0.0986
0.1010
0.1010
0.1010
0.1010
0.1010
0.1010
0.1010
0.1010
0.1010
0.0986
0.0986
0.0986
0.0986
0.1010
0.1010
0.1010
0.1010
0.1010
0.1010
0.1010
0.1010
0.1010
0.1010
0.1010
0.1010
0.1010
0.1010
0.1010
0.1010
0.1010
0.1010
0.1034
0.1034
0.1034
0.1034
0.1034
0.1034
0.1034
0.1034
0.1034
0.1034
0.1034
0.1034
0.1034
0.1034
0.1034
0.1034
0.1034
0.1034
0.1034
0.1034
0.1034
0.1034
0.1034
0.1034
0.1058
0.1058
0.1058
0.1058
0.1058
0.1058
0.1058
0.1058
0.1058
0.1058
0.1058
0.1058
0.1058
0.1058
0.1058
0.1058
0.1058
0.1082
0.1082
0.1082
0.1082
0.1082
0.1106
0.1106
0.1106
0.1106
0.1106
0.1106
0.1106
0.1106
0.1130
0.1130
0.1130
0.1130
0.1130
0.1130
0.1130
0.1130
0.1154
0.1154
0.1154
0.1154
0.1178
0.1178
0.1202
0.1226
0.1250
0.1274
0.1298
0.1322
0.1322
0.1346
0.1370
0.1370
0.1394
0.1394
0.1418
0.1418
0.1442
0.1466
0.1490
0.1514
0.1538
0.1563
0.1587
0.1587
0.1611
0.1611
0.1611
0.1611
0.1587
0.1563
0.1563
0.1538
0.1538
0.1538
0.1514
0.1514
0.1490
0.1490
0.1466
0.1418
0.1394
0.1346
0.1298
0.1250
0.1226
0.1178
0.1130
0.1106
0.1058
0.1034
0.1034
0.1010
0.1010
0.0986
0.0986
0.0986
0.0986
0.0962
0.0962
0.0962
0.0962
0.0962
0.0962
0.0962
0.0962
0.0962
0.0962
0.0962
0.0986
0.0986
0.0986
0.0986
0.0962
0.0962
0.0938
0.0913
0.0889
0.0889
0.0889
0.0938
0.1034
0.1226
0.1538
0.1947
0.2524
0.3221
0.4063
0.4976
0.5962
0.6971
0.7909
0.8750
0.9375
0.9808
0.9928
0.9736
0.9255
0.8558
0.7644
0.6587
0.5481
0.4399
0.3413
0.2524
0.1803
0.1250
0.0841
0.0553
0.0361
0.0240
0.0192
0.0192
0.0192
0.0240
0.0264
0.0288
0.0313
0.0337
0.0361
0.0361
0.0385
0.0385
0.0385
0.0409
0.0409
0.0409
0.0409
0.0433
0.0433
0.0433
0.0433
0.0457
0.0457
0.0481
0.0481
0.0481
0.0505
0.0505
0.0505
0.0505
0.0505
0.0505
0.0505
0.0529
0.0529
0.0529
0.0529
0.0529
0.0529
0.0553
0.0553
0.0553
0.0553
0.0577
0.0577
0.0577
0.0577
0.0577
0.0577
0.0577
0.0601
0.0601
0.0601
0.0601
0.0601
0.0601
0.0625
0.0625
0.0625
0.0649
0.0649
0.0649
0.0673
0.0673
0.0673
0.0673
0.0697
0.0697
0.0697
0.0697
0.0697
0.0721
0.0721
0.0721
0.0745
0.0745
0.0745
0.0769
0.0769
0.0769
0.0793
0.0793
0.0817
0.0817
0.0841
0.0841
0.0865
0.0865
0.0889
0.0889
0.0913
0.0913
0.0938
0.0938
0.0962
0.0986
0.1010
0.1010
0.1034
0.1058
0.1082
0.1106
0.1106
0.1130
0.1178
0.1202
0.1226
0.1250
0.1298
0.1322
0.1346
0.1370
0.1418
0.1442
0.1466
0.1490
0.1490
0.1514
0.1538
0.1563
0.1587
0.1587
0.1611
0.1635
0.1659
0.1659
0.1683
0.1707
0.1707
0.1731
0.1731
0.1755
0.1755
0.1779
0.1779
0.1779
0.1779
0.1779
0.1779
0.1755
0.1755
0.1731
0.1731
0.1731
0.1707
0.1683
0.1683
0.1659
0.1635
0.1611
0.1587
0.1563
0.1538
0.1514
0.1466
0.1442
0.1418
0.1370
0.1346
0.1298
0.1274
0.1226
0.1202
0.1178
0.1130
0.1106
0.1082
0.1058
0.1034
0.1010
0.0986
0.0962
0.0962
0.0938
0.0913
0.0913
0.0889
0.0889
0.0889
0.0865
0.0865
0.0865
0.0865
0.0841
0.0841
0.0841
0.0841
0.0841
0.0841
0.0817
0.0817
0.0817
0.0817
0.0817
0.0817
0.0817
0.0841
0.0841
0.0841
0.0841
0.0841
0.0817
0.0817
0.0817
0.0817
0.0817
0.0817
0.0817
0.0817
0.0817
0.0817
0.0841
0.0841
0.0841
0.0841
0.0841
0.0841
0.0841
0.0865
0.0865
0.0865
0.0865
0.0865
0.0889
0.0889
0.0889
0.0913
0.0913
0.0938
0.0938
0.0938
0.0962
0.0962
0.0962
0.0962
0.0986
0.0986
0.0986
0.0986
0.1010
0.1010
0.1010
0.1010
0.1034
0.1034
0.1058
0.1058
0.1082
0.1082
0.1106
0.1106
0.1106
0.1130
0.1130
0.1130
0.1130
0.1130
0.1130
0.1130
0.1130
0.1130
0.1130
0.1130
0.1130
0.1130
0.1130
0.1130
0.1130
0.1130
0.1106
0.1106
0.1106
0.1106
0.1106
0.1082
0.1082
0.1082
0.1082
0.1082
0.1082
0.1058
0.1058
0.1058
0.1058
0.1058
0.1058
0.1058
0.1058
0.1058
0.1058
0.1058
0.1058
0.1034
0.1034
0.1034
0.1034
0.1034
0.1058
0.1058
0.1058
0.1058
0.1034
0.1034
0.1034
0.1034
0.1034
0.1034
0.1034
0.1034
0.1034
0.1034
0.1034
0.1034
0.1034
0.1034
0.1034
0.1034
0.1034
0.1034
0.1034
0.1034
0.1034
0.1034
0.1034
0.1034
0.1034
0.1034
0.1034
0.1058
0.1058
0.1058
0.1058
0.1058
0.1058
0.1058
0.1058
0.1058
0.1058
0.1058
0.1058
0.1058
0.1058
0.1058
0.1058
0.1058
0.1058
0.1058
0.1082
0.1082
0.1082
0.1082
0.1082
0.1082
0.1082
0.1082
0.1082
0.1082
0.1082
0.1082
0.1082
0.1082
0.1082
0.1082
0.1082
0.1082
0.1082
0.1082
0.1082
0.1082
0.1082
0.1082
0.1082
0.1082
0.1082
0.1082
0.1082
0.1082
0.1082
0.1082
0.1082
0.1082
0.1082
0.1082
0.1082
0.1082
0.1058
0.1058
0.1058
0.1058
0.1058
0.1058
0.1058
0.1058
0.1058
0.1082
0.1082
0.1082
0.1082
0.1082
0.1082
0.1082
0.1082
0.1082
0.1082
0.1082
0.1082
0.1082
0.1082
0.1106
0.1106
0.1106
0.1106
0.1106
0.1106
0.1106
0.1106
0.1106
0.1106
0.1106
0.1106
0.1106
0.1106
0.1106
0.1106
0.1106
0.1106
0.1106
0.1106
0.1106
0.1106
0.1106
0.1106
0.1106
0.1082
0.1082
0.1082
0.1082
0.1082
0.1082
0.1082
0.1082
0.1082
0.1082
0.1082
0.1106
0.1106
0.1106
0.1106
0.1106
0.1106
0.1106
0.1106
0.1106
0.1106
0.1106
0.1106
0.1106
0.1106
0.1106
0.1106
0.1106
0.1106
0.1106
0.1106
0.1106
0.1106
0.1106
0.1106
0.1130
0.1130
0.1130
0.1130
0.1130
0.1130
0.1130
0.1130
0.1130
0.1130
0.1106
0.1106
0.1106
0.1106
0.1106
0.1106
0.1106
0.1106
0.1106
0.1130
0.1154
0.1178
0.1202
0.1226
0.1250
0.1274
0.1298
0.1322
0.1346
0.1370
0.1394
0.1394
0.1418
0.1442
0.1442
0.1466
0.1490
0.1490
0.1514
0.1538
0.1563
0.1563
0.1587
0.1611
0.1611
0.1611
0.1611
0.1611
0.1587
0.1587
0.1563
0.1538
0.1538
0.1514
0.1490
0.1490
0.1466
0.1466
0.1442
0.1394
0.1370
0.1322
0.1298
0.1250
0.1202
0.1178
0.1130
0.1106
0.1082
0.1058
0.1034
0.1010
0.1010
0.0986
0.0986
0.0986
0.0962
0.0962
0.0986
0.0986
0.0986
0.0986
0.1010
0.1010
0.1010
0.1010
0.1010
0.1010
0.1010
0.1010
0.0986
0.0986
0.0962
0.0938
0.0913
0.0913
0.0913
0.0938
0.1010
0.1178
0.1418
0.1803
0.2308
0.2957
0.3750
0.4639
0.5625
0.6635
0.7596
0.8486
0.9231
0.9736
0.9976
0.9928
0.9567
0.8942
0.8077
0.7067
0.5962
0.4856
0.3798
0.2861
0.2067
0.1418
0.0938
0.0601
0.0385
0.0240
0.0168
0.0144
0.0168
0.0192
0.0216
0.0264
0.0288
0.0288
0.0313
0.0313
0.0337
0.0337
0.0337
0.0337
0.0337
0.0337
0.0361
0.0361
0.0361
0.0385
0.0385
0.0409
0.0409
0.0409
0.0433
0.0433
0.0433
0.0457
0.0457
0.0457
0.0481
0.0481
0.0481
0.0505
0.0505
0.0505
0.0505
0.0505
0.0529
0.0529
0.0529
0.0529
0.0529
0.0529
0.0529
0.0529
0.0553
0.0553
0.0553
0.0553
0.0577
0.0577
0.0577
0.0601
0.0601
0.0601
0.0601
0.0625
0.0625
0.0625
0.0625
0.0625
0.0625
0.0649
0.0649
0.0649
0.0673
0.0673
0.0673
0.0697
0.0697
0.0697
0.0721
0.0721
0.0721
0.0745
0.0745
0.0769
0.0769
0.0793
0.0793
0.0817
0.0817
0.0841
0.0841
0.0841
0.0841
0.0865
0.0865
0.0865
0.0889
0.0913
0.0913
0.0938
0.0962
0.0962
0.0986
0.1010
0.1034
0.1058
0.1058
0.1082
0.1106
0.1130
0.1154
0.1178
0.1202
0.1226
0.1250
0.1298
0.1322
0.1346
0.1370
0.1394
0.1418
0.1442
0.1466
0.1490
0.1490
0.1514
0.1538
0.1538
0.1563
0.1563
0.1563
0.1587
0.1587
0.1611
0.1611
0.1635
0.1635
0.1659
0.1659
0.1659
0.1683
0.1683
0.1683
0.1683
0.1683
0.1683
0.1683
0.1683
0.1659
0.1659
0.1635
0.1635
0.1611
0.1587
0.1587
0.1563
0.1538
0.1514
0.1490
0.1466
0.1442
0.1418
0.1394
0.1370
0.1322
0.1298
0.1250
0.1226
0.1202
0.1154
0.1130
0.1082
0.1058
0.1034
0.1010
0.0986
0.0962
0.0938
0.0938
0.0913
0.0889
0.0889
0.0865
0.0865
0.0865
0.0841
0.0841
0.0841
0.0817
0.0817
0.0817
0.0817
0.0817
0.0817
0.0817
0.0817
0.0817
0.0817
0.0817
0.0817
0.0817
0.0817
0.0817
0.0817
0.0817
0.0817
0.0817
0.0817
0.0817
0.0817
0.0817
0.0817
0.0817
0.0817
0.0817
0.0817
0.0841
0.0841
0.0841
0.0841
0.0841
0.0841
0.0841
0.0841
0.0841
0.0841
0.0865
0.0865
0.0865
0.0865
0.0865
0.0889
0.0889
0.0889
0.0889
0.0913
0.0913
0.0913
0.0938
0.0938
0.0938
0.0962
0.0962
0.0962
0.0962
0.0986
0.0986
0.0986
0.0986
0.0986
0.1010
0.1010
0.1010
0.1010
0.1010
0.1010
0.1010
0.1034
0.1034
0.1034
0.1034
0.1058
0.1058
0.1058
0.1058
0.1058
0.1058
0.1058
0.1034
0.1034
0.1034
0.1034
0.1034
0.1034
0.1034
0.1034
0.1010
0.1010
0.1010
0.1010
0.1010
0.1010
0.1010
0.0986
0.0986
0.0986
0.0986
0.0986
0.0986
0.0986
0.0986
0.1010
0.1010
0.1010
0.1010
0.1010
0.1010
0.1010
0.1010
0.1010
0.0986
0.0986
0.0986
0.0986
0.0986
0.0986
0.0986
0.0986
0.0986
0.0986
0.0986
0.0986
0.0986
0.0986
0.0986
0.0986
0.0986
0.0986
0.0986
0.0986
0.0986
0.0986
0.0986
0.0986
0.0986
0.0986
0.0986
0.0986
0.0986
0.0986
0.0986
0.0962
0.0962
0.0962
0.0962
0.0962
0.0962
0.0962
0.0962
0.0962
0.0962
0.0962
0.0986
0.0986
0.0986
0.0986
0.0986
0.0986
0.1010
0.0986
0.0986
0.0986
0.0986
0.0986
0.0986
0.0986
0.0986
0.0986
0.0986
0.1010
0.1010
0.1010
0.1010
0.1010
0.1010
0.1010
0.1010
0.1010
0.1010
0.1010
0.1010
0.1010
0.1010
0.1010
0.1010
0.1010
0.1010
0.1010
0.1010
0.1010
0.1010
0.1010
0.1010
0.1010
0.1010
0.1010
0.1010
0.1010
0.1010
0.1010
0.1010
0.1010
0.1034
0.1034
0.1034
0.1034
0.1034
0.1034
0.1034
0.1034
0.1034
0.1034
0.1034
0.1034
0.1034
0.1034
0.1034
0.1034
0.1058
0.1058
0.1058
0.1058
0.1058
0.1058
0.1058
0.1058
0.1058
0.1058
0.1058
0.1058
0.1058
0.1058
0.1058
0.1058
0.1058
0.1058
0.1058
0.1058
0.1058
0.1058
0.1058
0.1058
0.1058
0.1058
0.1058
0.1082
0.1082
0.1082
0.1082
0.1082
0.1082
0.1082
0.1082
0.1082
0.1106
0.1106
0.1106
0.1106
0.1106
0.1082
0.1082
0.1082
0.1082
0.1082
0.1082
0.1082
0.1082
0.1082
0.1082
0.1082
0.1082
0.1082
0.1082
0.1082
0.1082
0.1082
0.1082
0.1082
0.1082
0.1082
0.1082
0.1106
0.1106
0.1106
0.1106
0.1106
0.1130
0.1130
0.1130
0.1106
0.1106
0.1130
0.1106
0.1106
0.1106
0.1130
0.1106
0.1130
0.1130
0.1130
0.1130
0.1130
0.1130
0.1130
0.1130
0.1130
0.1130
0.1130
0.1130
0.1130
0.1130
0.1130
0.1130
0.1154
0.1154
0.1154
0.1178
0.1202
0.1226
0.1250
0.1274
0.1274
0.1298
0.1322
0.1346
0.1370
0.1370
0.1394
0.1394
0.1418
0.1418
0.1442
0.1466
0.1490
0.1514
0.1538
0.1563
0.1563
0.1587
0.1611
0.1611
0.1611
0.1587
0.1587
0.1563
0.1538
0.1538
0.1514
0.1514
0.1490
0.1490
0.1466
0.1442
0.1418
0.1394
0.1346
0.1322
0.1274
0.1226
0.1178
0.1130
0.1106
0.1058
0.1034
0.1010
0.0986
0.0986
0.0962
0.0962
0.0962
0.0962
0.0962
0.0962
0.0962
0.0962
0.0962
0.0962
0.0962
0.0986
0.0986
0.0986
0.1010
0.1010
0.1010
0.1010
0.1010
0.1010
0.0986
0.0962
0.0938
0.0938
0.0938
0.0962
0.1058
0.1226
0.1514
0.1899
0.2428
0.3101
0.3894
0.4808
0.5769
0.6755
0.7716
0.8558
0.9255
0.9712
0.9904
0.9784
0.9375
0.8702
0.7813
0.6779
0.5673
0.4543
0.3510
0.2596
0.1827
0.1226
0.0793
0.0481
0.0288
0.0168
0.0096
0.0096
0.0120
0.0168
0.0192
0.0240
0.0264
0.0313
0.0337
0.0361
0.0361
0.0385
0.0409
0.0409
0.0433
0.0433
0.0433
0.0457
0.0457
0.0457
0.0457
0.0457
0.0481
0.0481
0.0505
0.0505
0.0505
0.0505
0.0529
0.0529
0.0529
0.0529
0.0529
0.0529
0.0553
0.0553
0.0553
0.0553
0.0577
0.0577
0.0577
0.0577
0.0601
0.0601
0.0601
0.0625
0.0625
0.0625
0.0625
0.0625
0.0649
0.0649
0.0625
0.0649
0.0649
0.0649
0.0649
0.0673
0.0673
0.0673
0.0697
0.0697
0.0697
0.0697
0.0721
0.0721
0.0721
0.0721
0.0745
0.0745
0.0745
0.0745
0.0769
0.0769
0.0769
0.0769
0.0769
0.0769
0.0769
0.0793
0.0793
0.0817
0.0841
0.0841
0.0865
0.0865
0.0889
0.0913
0.0913
0.0938
0.0938
0.0938
0.0962
0.0962
0.0986
0.0986
0.1010
0.1034
0.1058
0.1058
0.1082
0.1106
0.1130
0.1154
0.1178
0.1202
0.1226
0.1250
0.1274
0.1298
0.1322
0.1346
0.1370
0.1394
0.1418
0.1442
0.1466
0.1466
0.1490
0.1514
0.1538
0.1538
0.1563
0.1587
0.1587
0.1611
0.1611
0.1635
0.1635
0.1659
0.1659
0.1659
0.1659
0.1659
0.1659
0.1659
0.1659
0.1659
0.1659
0.1635
0.1635
0.1635
0.1611
0.1611
0.1611
0.1587
0.1563
0.1563
0.1538
0.1538
0.1514
0.1490
0.1466
0.1466
0.1442
0.1394
0.1370
0.1346
0.1322
0.1274
0.1250
0.1226
0.1178
0.1154
0.1130
0.1106
0.1082
0.1058
0.1034
0.1034
0.1010
0.0986
0.0986
0.0962
0.0962
0.0938
0.0938
0.0913
0.0913
0.0889
0.0889
0.0889
0.0865
0.0865
0.0865
0.0865
0.0865
0.0865
0.0841
0.0841
0.0841
0.0841
0.0841
0.0841
0.0841
0.0841
0.0841
0.0841
0.0841
0.0817
0.0817
0.0817
0.0817
0.0793
0.0793
0.0817
0.0817
0.0817
0.0817
0.0841
0.0841
0.0841
0.0841
0.0841
0.0841
0.0841
0.0841
0.0841
0.0865
0.0865
0.0889
0.0889
0.0913
0.0913
0.0938
0.0938
0.0962
0.0962
0.0962
0.0986
0.0986
0.1010
0.1010
0.1034
0.1034
0.1058
0.1058
0.1058
0.1082
0.1082
0.1082
0.1106
0.1106
0.1106
0.1106
0.1106
0.1130
0.1130
0.1130
0.1154
0.1154
0.1154
0.1154
0.1154
0.1154
0.1154
0.1154
0.1130
0.1130
0.1130
0.1130
0.1130
0.1130
0.1130
0.1130
0.1130
0.1130
0.1130
0.1130
0.1106
0.1106
0.1106
0.1106
0.1106
0.1106
0.1082
0.1082
0.1082
0.1082
0.1082
0.1058
0.1058
0.1058
0.1058
0.1034
0.1034
0.1034
0.1010
0.1010
0.1010
0.1010
0.1010
0.1010
0.1010
0.1010
0.1010
0.1010
0.1010
0.1010
0.1010
0.0986
0.0986
0.0986
0.0986
0.0986
0.0986
0.0986
0.0986
0.0986
0.1010
0.1010
0.1010
0.1010
0.1010
0.1010
0.0986
0.0986
0.0986
0.0986
0.0986
0.0986
0.0986
0.0986
0.0986
0.0986
0.1010
0.1010
0.1010
0.1010
0.1010
0.1010
0.1010
0.1010
0.1010
0.0986
0.0986
0.0986
0.0986
0.0986
0.0986
0.0986
0.0986
0.0986
0.0986
0.0986
0.0986
0.0986
0.0986
0.0986
0.0986
0.0986
0.0986
0.0986
0.0986
0.0986
0.0986
0.1010
0.1010
0.1010
0.1010
0.1010
0.1010
0.1010
0.1010
0.1010
0.1010
0.1010
0.1010
0.1010
0.1010
0.1010
0.1010
0.1010
0.1010
0.1010
0.1010
0.1010
0.1010
0.1010
0.1010
0.1010
0.1010
0.1034
0.1034
0.1034
0.1034
0.1034
0.1034
0.1034
0.1034
0.1034
0.1034
0.1034
0.1034
0.1034
0.1034
0.1034
0.1034
0.1034
0.1058
0.1058
0.1058
0.1058
0.1058
0.1058
0.1058
0.1058
0.1058
0.1058
0.1058
0.1058
0.1058
0.1082
0.1106
0.1130
0.1154
0.1202
0.1226
0.1250
0.1274
0.1298
0.1322
0.1346
0.1370
0.1370
0.1394
0.1394
0.1418
0.1418
0.1442
0.1466
0.1466
0.1490
0.1490
0.1490
0.1514
0.1514
0.1514
0.1514
0.1490
0.1490
0.1490
0.1466
0.1466
0.1466
0.1466
0.1442
0.1442
0.1418
0.1394
0.1370
0.1322
0.1298
0.1250
0.1202
0.1154
0.1106
0.1082
0.1034
0.1010
0.0986
0.0962
0.0962
0.0938
0.0938
0.0913
0.0913
0.0913
0.0913
0.0913
0.0913
0.0913
0.0913
0.0913
0.0913
0.0913
0.0938
0.0938
0.0938
0.0938
0.0938
0.0913
0.0913
0.0889
0.0865
0.0865
0.0841
0.0841
0.0865
0.0913
0.1034
0.1226
0.1514
0.1923
0.2452
0.3101
0.3870
0.4736
0.5649
0.6587
0.7476
0.8245
0.8894
0.9303
0.9423
0.9255
0.8822
0.8125
0.7236
0.6202
0.5144
0.4087
0.3101
0.2260
0.1563
0.1034
0.0649
0.0409
0.0240
0.0144
0.0120
0.0120
0.0168
0.0192
0.0240
0.0288
0.0313
0.0337
0.0361
0.0361
0.0385
0.0409
0.0409
0.0433
0.0433
0.0433
0.0457
0.0457
0.0481
0.0481
0.0481
0.0481
0.0505
0.0505
0.0505
0.0505
0.0505
0.0529
0.0529
0.0529
0.0553
0.0553
0.0553
0.0553
0.0553
0.0577
0.0577
0.0577
0.0577
0.0577
0.0577
0.0601
0.0601
0.0601
0.0625
0.0625
0.0625
0.0625
0.0649
0.0649
0.0649
0.0673
0.0673
0.0673
0.0673
0.0697
0.0697
0.0697
0.0697
0.0721
0.0721
0.0745
0.0745
0.0745
0.0769
0.0769
0.0769
0.0769
0.0769
0.0793
0.0793
0.0793
0.0817
0.0817
0.0817
0.0841
0.0841
0.0841
0.0865
0.0865
0.0889
0.0889
0.0913
0.0913
0.0938
0.0938
0.0962
0.0962
0.0962
0.0986
0.0986
0.1010
0.1034
0.1034
0.1058
0.1082
0.1106
0.1130
0.1154
0.1178
0.1202
0.1226
0.1274
0.1298
0.1322
0.1346
0.1370
0.1394
0.1418
0.1442
0.1466
0.1514
0.1538
0.1563
0.1587
0.1635
0.1659
0.1683
0.1707
0.1731
0.1755
0.1779
0.1803
0.1803
0.1827
0.1827
0.1851
0.1851
0.1875
0.1875
0.1875
0.1875
0.1875
0.1875
0.1875
0.1875
0.1875
0.1875
0.1875
0.1875
0.1851
0.1851
0.1827
0.1827
0.1803
0.1779
0.1779
0.1731
0.1707
0.1683
0.1659
0.1635
0.1587
0.1563
0.1514
0.1466
0.1442
0.1394
0.1346
0.1322
0.1274
0.1226
0.1178
0.1154
0.1130
0.1082
0.1058
0.1034
0.1010
0.0962
0.0962
0.0938
0.0913
0.0889
0.0865
0.0865
0.0841
0.0841
0.0841
0.0817
0.0817
0.0817
0.0817
0.0817
0.0817
0.0793
0.0793
0.0793
0.0793
0.0793
0.0793
0.0793
0.0793
0.0793
0.0769
0.0769
0.0769
0.0769
0.0769
0.0769
0.0769
0.0769
0.0769
0.0769
0.0769
0.0769
0.0769
0.0769
0.0793
0.0793
0.0793
0.0793
0.0793
0.0793
0.0793
0.0817
0.0817
0.0841
0.0841
0.0841
0.0841
0.0865
0.0865
0.0865
0.0865
0.0889
0.0889
0.0889
0.0913
0.0913
0.0938
0.0938
0.0962
0.0962
0.0962
0.0986
0.0986
0.0986
0.1010
0.1010
0.1010
0.1034
0.1034
0.1034
0.1058
0.1058
0.1058
0.1082
0.1082
0.1106
0.1106
0.1106
0.1130
0.1130
0.1130
0.1154
0.1154
0.1154
0.1154
0.1154
0.1154
0.1154
0.1154
0.1154
0.1130
0.1130
0.1130
0.1130
0.1130
0.1130
0.1106
0.1106
0.1106
0.1106
0.1106
0.1106
0.1082
0.1082
0.1082
0.1082
0.1058
0.1058
0.1058
0.1058
0.1058
0.1034
0.1034
0.1034
0.1034
0.1034
0.1034
0.1034
0.1034
0.1034
0.1034
0.1034
0.1034
0.1034
0.1034
0.1034
0.1034
0.1034
0.1034
0.1010
0.1010
0.1010
0.1010
0.1010
0.1010
0.1010
0.1010
0.1010
0.1010
0.1010
0.1010
0.1010
0.1010
0.1010
0.1010
0.1010
0.1010
0.1010
0.1010
0.1010
0.1010
0.1010
0.1010
0.1010
0.1010
0.1010
0.1010
0.1010
0.1010
0.1010
0.1010
0.1010
0.1010
0.1034
0.1034
0.1034
0.1034
0.1034
0.1058
0.1058
0.1058
0.1058
0.1058
0.1058
0.1058
0.1058
0.1058
0.1058
0.1058
0.1058
0.1058
0.1058
0.1058
0.1058
0.1058
0.1058
0.1058
0.1058
0.1058
0.1058
0.1034
0.1058
0.1058
0.1058
0.1058
0.1058
0.1058
0.1058
0.1082
0.1082
0.1082
0.1082
0.1082
0.1082
0.1082
0.1082
0.1082
0.1082
0.1082
0.1082
0.1082
0.1106
0.1106
0.1106
0.1106
0.1106
0.1106
0.1106
0.1106
0.1106
0.1106
0.1106
0.1106
0.1106
0.1106
0.1106
0.1082
0.1082
0.1082
0.1082
0.1082
0.1082
0.1082
0.1082
0.1082
0.1082
0.1082
0.1106
0.1106
0.1106
0.1106
0.1106
0.1106
0.1106
0.1106
0.1130
0.1130
0.1154
0.1202
0.1226
0.1250
0.1274
0.1298
0.1322
0.1346
0.1346
0.1370
0.1394
0.1394
0.1418
0.1418
0.1442
0.1466
0.1490
0.1514
0.1538
0.1538
0.1563
0.1563
0.1587
0.1587
0.1563
0.1563
0.1563
0.1538
0.1538
0.1538
0.1514
0.1514
0.1490
0.1490
0.1466
0.1442
0.1394
0.1370
0.1322
0.1274
0.1226
0.1178
0.1130
0.1082
0.1058
0.1034
0.1010
0.0986
0.0962
0.0962
0.0938
0.0938
0.0938
0.0938
0.0938
0.0938
0.0962
0.0962
0.0962
0.0962
0.0962
0.0962
0.0962
0.0962
0.0962
0.0962
0.0962
0.0962
0.0962
0.0938
0.0913
0.0913
0.0889
0.0889
0.0889
0.0962
0.1058
0.1250
0.1514
0.1923
0.2452
0.3101
0.3870
0.4736
0.5673
0.6611
0.7500
0.8293
0.8918
0.9351
0.9471
0.9327
0.8894
0.8197
0.7332
0.6322
0.5240
0.4183
0.3221
0.2356
0.1659
0.1106
0.0721
0.0457
0.0288
0.0192
0.0144
0.0144
0.0168
0.0216
0.0240
0.0264
0.0313
0.0337
0.0337
0.0337
0.0361
0.0361
0.0385
0.0385
0.0385
0.0409
0.0409
0.0409
0.0433
0.0433
0.0433
0.0433
0.0457
0.0457
0.0457
0.0457
0.0481
0.0481
0.0481
0.0481
0.0505
0.0505
0.0505
0.0505
0.0529
0.0529
0.0529
0.0529
0.0553
0.0553
0.0553
0.0553
0.0577
0.0577
0.0577
0.0577
0.0601
0.0601
0.0601
0.0601
0.0601
0.0601
0.0601
0.0625
0.0625
0.0625
0.0625
0.0625
0.0649
0.0649
0.0673
0.0673
0.0673
0.0697
0.0697
0.0697
0.0697
0.0697
0.0721
0.0721
0.0721
0.0721
0.0745
0.0745
0.0745
0.0769
0.0769
0.0793
0.0793
0.0817
0.0817
0.0841
0.0865
0.0865
0.0889
0.0913
0.0913
0.0938
0.0962
0.0962
0.0986
0.1010
0.1034
0.1034
0.1058
0.1082
0.1106
0.1130
0.1154
0.1202
0.1226
0.1250
0.1274
0.1298
0.1322
0.1370
0.1370
0.1394
0.1442
0.1442
0.1466
0.1490
0.1538
0.1563
0.1587
0.1611
0.1635
0.1659
0.1683
0.1707
0.1731
0.1755
0.1779
0.1803
0.1827
0.1827
0.1851
0.1875
0.1875
0.1875
0.1899
0.1899
0.1899
0.1899
0.1899
0.1899
0.1899
0.1899
0.1923
0.1923
0.1899
0.1899
0.1899
0.1875
0.1851
0.1827
0.1803
0.1779
0.1755
0.1707
0.1683
0.1635
0.1611
0.1563
0.1514
0.1490
0.1442
0.1418
0.1370
0.1346
0.1298
0.1274
0.1226
0.1202
0.1154
0.1130
0.1082
0.1058
0.1034
0.1010
0.1010
0.0986
0.0962
0.0938
0.0913
0.0889
0.0889
0.0865
0.0865
0.0841
0.0841
0.0841
0.0817
0.0817
0.0817
0.0817
0.0817
0.0817
0.0817
0.0817
0.0817
0.0817
0.0817
0.0817
0.0817
0.0817
0.0817
0.0817
0.0817
0.0817
0.0817
0.0817
0.0817
0.0817
0.0817
0.0817
0.0817
0.0817
0.0841
0.0841
0.0841
0.0841
0.0841
0.0841
0.0841
0.0841
0.0865
0.0865
0.0865
0.0865
0.0865
0.0865
0.0889
0.0889
0.0889
0.0889
0.0913
0.0913
0.0913
0.0938
0.0938
0.0962
0.0962
0.0962
0.0986
0.0986
0.1010
0.1010
0.1010
0.1034
0.1034
0.1058
0.1058
0.1058
0.1082
0.1082
0.1082
0.1082
0.1082
0.1082
0.1106
0.1106
0.1106
0.1106
0.1106
0.1106
0.1106
0.1106
0.1106
0.1106
0.1106
0.1106
0.1106
0.1082
0.1082
0.1082
0.1082
0.1082
0.1082
0.1082
0.1082
0.1082
0.1082
0.1082
0.1058
0.1058
0.1058
0.1058
0.1058
0.1058
0.1034
0.1034
0.1034
0.1034
0.1034
0.1034
0.1010
0.1010
0.1010
0.1010
0.1010
0.1010
0.1010
0.0986
0.0986
0.0986
0.0986
0.0986
0.0962
0.0962
0.0962
0.0962
0.0962
0.0962
0.0962
0.0962
0.0962
0.0962
0.0962
0.0962
0.0962
0.0938
0.0938
0.0938
0.0938
0.0938
0.0938
0.0938
0.0938
0.0938
0.0962
0.0962
0.0962
0.0962
0.0962
0.0962
0.0962
0.0962
0.0962
0.0962
0.0962
0.0962
0.0962
0.0962
0.0962
0.0962
0.0962
0.0962
0.0962
0.0962
0.0962
0.0962
0.0962
0.0962
0.0962
0.0962
0.0962
0.0962
0.0962
0.0962
0.0962
0.0962
0.0962
0.0962
0.0962
0.0962
0.0962
0.0962
0.0962
0.0962
0.0962
0.0962
0.0962
0.0962
0.0962
0.0962
0.0962
0.0962
0.0962
0.0962
0.0962
0.0962
0.0962
0.0962
0.0962
0.0962
0.0962
0.0962
0.0962
0.0962
0.0962
0.0986
0.0986
0.0986
0.0986
0.0986
0.0986
0.1010
0.1010
0.1010
0.1010
0.1010
0.1010
0.1010
0.1010
0.1010
0.1010
0.1010
0.1010
0.1010
0.1010
0.1010
0.1034
0.1034
0.1034
0.1034
0.1034
0.1034
0.1034
0.1034
0.1034
0.1034
0.1034
0.1034
0.1034
0.1034
0.1034
0.1034
0.1058
0.1058
0.1058
0.1058
0.1058
0.1058
0.1058
0.1058
0.1058
0.1058
0.1058
0.1058
0.1058
0.1058
0.1058
0.1058
0.1058
0.1058
0.1082
0.1082
0.1082
0.1106
0.1130
0.1130
0.1154
0.1178
0.1202
0.1226
0.1250
0.1274
0.1298
0.1322
0.1346
0.1346
0.1370
0.1394
0.1418
0.1442
0.1466
0.1490
0.1514
0.1538
0.1563
0.1563
0.1563
0.1587
0.1563
0.1563
0.1563
0.1538
0.1538
0.1514
0.1514
0.1490
0.1490
0.1466
0.1442
0.1418
0.1394
0.1346
0.1298
0.1250
0.1202
0.1178
0.1130
0.1082
0.1058
0.1034
0.1010
0.0986
0.0962
0.0962
0.0962
0.0938
0.0938
0.0962
0.0962
0.0962
0.0962
0.0962
0.0962
0.0962
0.0962
0.0962
0.0986
0.0986
0.0986
0.0986
0.0986
0.0986
0.0986
0.0986
0.0962
0.0938
0.0938
0.0913
0.0889
0.0889
0.0938
0.1010
0.1154
0.1394
0.1755
0.2212
0.2788
0.3510
0.4303
0.5192
0.6130
0.7043
0.7885
0.8606
0.9135
0.9447
0.9447
0.9135
0.8582
0.7813
0.6851
0.5793
0.4712
0.3678
0.2740
0.1947
0.1298
0.0841
0.0505
0.0288
0.0144
0.0096
0.0072
0.0096
0.0120
0.0168
0.0192
0.0240
0.0264
0.0288
0.0313
0.0337
0.0337
0.0361
0.0361
0.0385
0.0385
0.0385
0.0409
0.0409
0.0409
0.0409
0.0433
0.0433
0.0433
0.0433
0.0433
0.0457
0.0457
0.0457
0.0457
0.0481
0.0481
0.0481
0.0481
0.0505
0.0505
0.0505
0.0529
0.0529
0.0529
0.0553
0.0553
0.0553
0.0577
0.0577
0.0577
0.0577
0.0577
0.0577
0.0577
0.0601
0.0601
0.0601
0.0601
0.0601
0.0601
0.0601
0.0625
0.0625
0.0625
0.0649
0.0649
0.0673
0.0673
0.0697
0.0697
0.0721
0.0721
0.0721
0.0745
0.0745
0.0745
0.0769
0.0769
0.0769
0.0769
0.0769
0.0769
0.0793
0.0793
0.0817
0.0817
0.0841
0.0841
0.0865
0.0865
0.0889
0.0913
0.0913
0.0938
0.0938
0.0962
0.0962
0.0986
0.1010
0.1010
0.1034
0.1058
0.1058
0.1082
0.1106
0.1130
0.1178
0.1202
0.1226
0.1274
0.1298
0.1322
0.1370
0.1394
0.1418
0.1442
0.1466
0.1490
0.1538
0.1563
0.1587
0.1611
0.1635
0.1659
0.1683
0.1707
0.1731
0.1731
0.1755
0.1779
0.1779
0.1803
0.1803
0.1803
0.1803
0.1827
0.1827
0.1827
0.1827
0.1827
0.1803
0.1803
0.1803
0.1803
0.1803
0.1779
0.1779
0.1779
0.1755
0.1731
0.1731
0.1707
0.1683
0.1659
0.1635
0.1611
0.1563
0.1538
0.1514
0.1466
0.1442
0.1394
0.1370
0.1322
0.1298
0.1250
0.1202
0.1154
0.1130
0.1082
0.1058
0.1010
0.0986
0.0962
0.0938
0.0938
0.0913
0.0913
0.0889
0.0889
0.0865
0.0865
0.0865
0.0841
0.0841
0.0817
0.0817
0.0817
0.0817
0.0817
0.0793
0.0793
0.0793
0.0793
0.0793
0.0769
0.0769
0.0769
0.0769
0.0769
0.0745
0.0745
0.0745
0.0745
0.0745
0.0745
0.0745
0.0745
0.0745
0.0745
0.0745
0.0745
0.0745
0.0769
0.0769
0.0769
0.0769
0.0769
0.0769
0.0769
0.0793
0.0793
0.0793
0.0793
0.0817
0.0817
0.0841
0.0841
0.0865
0.0865
0.0889
0.0913
0.0913
0.0938
0.0938
0.0962
0.0962
0.0962
0.0986
0.0986
0.1010
0.1010
0.1010
0.1034
0.1034
0.1058
0.1058
0.1082
0.1082
0.1082
0.1082
0.1106
0.1106
0.1106
0.1106
0.1106
0.1106
0.1130
0.1130
0.1130
0.1130
0.1130
0.1130
0.1130
0.1130
0.1130
0.1130
0.1130
0.1130
0.1130
0.1130
0.1130
0.1106
0.1106
0.1106
0.1106
0.1106
0.1082
0.1082
0.1082
0.1058
0.1058
0.1058
0.1034
0.1034
0.1034
0.1034
0.1034
0.1010
0.1010
0.1010
0.1010
0.1010
0.0986
0.0986
0.0986
0.0986
0.0986
0.0986
0.0986
0.0986
0.0986
0.0986
0.0962
0.0962
0.0962
0.0962
0.0962
0.0962
0.0962
0.0962
0.0962
0.0962
0.0962
0.0962
0.0962
0.0962
0.0962
0.0962
0.0962
0.0962
0.0962
0.0962
0.0962
0.0962
0.0962
0.0962
0.0962
0.0962
0.0962
0.0962
0.0962
0.0938
0.0938
0.0938
0.0938
0.0938
0.0938
0.0938
0.0938
0.0938
0.0938
0.0962
0.0962
0.0962
0.0962
0.0962
0.0962
0.0962
0.0962
0.0962
0.0962
0.0962
0.0962
0.0962
0.0986
0.0986
0.0986
0.0986
0.0986
0.0986
0.0986
0.0986
0.0986
0.0986
0.0986
0.1010
0.1010
0.1010
0.1010
0.1010
0.1010
0.1010
0.1010
0.1010
0.1010
0.1010
0.1010
0.1010
0.1010
0.1010
0.1010
0.1010
0.0986
0.0986
0.0986
0.0986
0.1010
0.1010
0.1010
0.1010
0.1010
0.1010
0.1010
0.1010
0.1010
0.1010
0.1010
0.1010
0.1010
0.1010
0.1010
0.1010
0.1010
0.1010
0.1010
0.1010
0.1010
0.1034
0.1034
0.1034
0.1034
0.1034
0.1034
0.1034
0.1034
0.1058
0.1058
0.1058
0.1082
0.1106
0.1130
0.1154
0.1178
0.1202
0.1226
0.1250
0.1274
0.1298
0.1322
0.1322
0.1346
0.1370
0.1370
0.1394
0.1418
0.1442
0.1466
0.1490
0.1514
0.1514
0.1538
0.1538
0.1538
0.1538
0.1538
0.1538
0.1514
0.1490
0.1490
0.1466
0.1466
0.1466
0.1442
0.1442
0.1418
0.1370
0.1346
0.1298
0.1250
0.1202
0.1154
0.1106
0.1058
0.1034
0.0986
0.0962
0.0938
0.0938
0.0913
0.0913
0.0913
0.0913
0.0913
0.0913
0.0913
0.0913
0.0913
0.0913
0.0913
0.0913
0.0913
0.0913
0.0938
0.0938
0.0938
0.0938
0.0938
0.0938
0.0938
0.0913
0.0913
0.0889
0.0865
0.0865
0.0865
0.0913
0.0986
0.1130
0.1346
0.1659
0.2091
0.2668
0.3341
0.4135
0.5000
0.5938
0.6875
0.7740
0.8486
0.9063
0.9399
0.9423
0.9183
0.8654
0.7909
0.6947
0.5889
0.4808
0.3774
0.2813
0.2019
0.1346
0.0865
0.0529
0.0313
0.0168
0.0096
0.0096
0.0120
0.0144
0.0192
0.0240
0.0264
0.0288
0.0313
0.0337
0.0361
0.0361
0.0385
0.0385
0.0385
0.0385
0.0409
0.0409
0.0409
0.0433
0.0433
0.0433
0.0433
0.0457
0.0457
0.0481
0.0481
0.0481
0.0505
0.0505
0.0505
0.0505
0.0529
0.0529
0.0529
0.0529
0.0529
0.0529
0.0553
0.0553
0.0553
0.0577
0.0577
0.0577
0.0601
0.0601
0.0601
0.0601
0.0625
0.0625
0.0625
0.0625
0.0625
0.0625
0.0649
0.0649
0.0649
0.0673
0.0673
0.0673
0.0673
0.0697
0.0697
0.0697
0.0697
0.0721
0.0721
0.0721
0.0745
0.0745
0.0745
0.0769
0.0769
0.0769
0.0793
0.0793
0.0793
0.0817
0.0817
0.0841
0.0841
0.0841
0.0865
0.0865
0.0889
0.0889
0.0913
0.0913
0.0938
0.0962
0.0962
0.0986
0.1010
0.1034
0.1034
0.1058
0.1082
0.1106
0.1130
0.1154
0.1178
0.1226
0.1250
0.1274
0.1298
0.1346
0.1370
0.1394
0.1418
0.1442
0.1466
0.1490
0.1514
0.1538
0.1563
0.1587
0.1611
0.1635
0.1659
0.1683
0.1707
0.1731
0.1755
0.1779
0.1779
0.1803
0.1827
0.1827
0.1851
0.1851
0.1875
0.1875
0.1875
0.1875
0.1875
0.1875
0.1875
0.1875
0.1875
0.1875
0.1851
0.1851
0.1851
0.1827
0.1803
0.1803
0.1779
0.1755
0.1731
0.1707
0.1683
0.1659
0.1611
0.1587
0.1563
0.1514
0.1490
0.1442
0.1394
0.1346
0.1322
0.1274
0.1226
0.1178
0.1154
0.1106
0.1082
0.1034
0.1010
0.0986
0.0962
0.0938
0.0913
0.0913
0.0889
0.0889
0.0865
0.0865
0.0865
0.0841
0.0841
0.0841
0.0817
0.0817
0.0817
0.0793
0.0793
0.0793
0.0793
0.0793
0.0793
0.0769
0.0769
0.0769
0.0769
0.0769
0.0769
0.0769
0.0769
0.0769
0.0769
0.0769
0.0769
0.0769
0.0769
0.0793
0.0793
0.0793
0.0817
0.0817
0.0817
0.0817
0.0817
0.0817
0.0841
0.0841
0.0841
0.0841
0.0841
0.0841
0.0841
0.0841
0.0865
0.0865
0.0865
0.0865
0.0889
0.0889
0.0889
0.0913
0.0913
0.0938
0.0938
0.0962
0.0962
0.0962
0.0986
0.0986
0.1010
0.1010
0.1010
0.1010
0.1034
0.1034
0.1034
0.1058
0.1058
0.1058
0.1082
0.1082
0.1106
0.1106
0.1130
0.1130
0.1130
0.1130
0.1130
0.1130
0.1130
0.1130
0.1130
0.1130
0.1130
0.1130
0.1130
0.1130
0.1130
0.1106
0.1106
0.1106
0.1106
0.1082
0.1082
0.1082
0.1082
0.1082
0.1082
0.1082
0.1082
0.1082
0.1082
0.1058
0.1058
0.1058
0.1058
0.1058
0.1058
0.1058
0.1034
0.1034
0.1034
0.1034
0.1034
0.1034
0.1010
0.1010
0.1010
0.1010
0.1010
0.1010
0.1010
0.1010
0.1010
0.1034
0.1034
0.1034
0.1034
0.1034
0.1034
0.1010
0.1034
0.1034
0.1034
0.1034
0.1034
0.1034
0.1034
0.1034
0.1034
0.1034
0.1034
0.1034
0.1034
0.1034
0.1034
0.1034
0.1034
0.1034
0.1034
0.1034
0.1034
0.1034
0.1034
0.1034
0.1034
0.1034
0.1034
0.1034
0.1034
0.1034
0.1034
0.1034
0.1034
0.1034
0.1034
0.1034
0.1034
0.1058
0.1058
0.1058
0.1058
0.1058
0.1058
0.1058
0.1058
0.1058
0.1058
0.1058
0.1058
0.1058
0.1058
0.1058
0.1058
0.1058
0.1058
0.1058
0.1058
0.1058
0.1058
0.1058
0.1058
0.1058
0.1058
0.1058
0.1058
0.1058
0.1058
0.1058
0.1058
0.1058
0.1058
0.1058
0.1082
0.1082
0.1082
0.1082
0.1082
0.1082
0.1082
0.1082
0.1058
0.1058
0.1058
0.1058
0.1058
0.1058
0.1058
0.1058
0.1082
0.1082
0.1082
0.1082
0.1082
0.1106
0.1106
0.1106
0.1106
0.1106
0.1106
0.1106
0.1106
0.1106
0.1106
0.1106
0.1106
0.1106
0.1130
0.1130
0.1130
0.1130
0.1130
0.1130
0.1130
0.1130
0.1130
0.1130
0.1130
0.1130
0.1130
0.1130
0.1130
0.1130
0.1130
0.1130
0.1130
0.1154
0.1154
0.1154
0.1154
0.1154
0.1154
0.1154
0.1154
0.1154
0.1154
0.1154
0.1154
0.1154
0.1154
0.1154
0.1154
0.1154
0.1154
0.1154
0.1178
0.1178
0.1178
0.1178
0.1178
0.1202
0.1202
0.1202
0.1202
0.1202
0.1178
0.1178
0.1178
0.1178
0.1178
0.1178
0.1178
0.1178
0.1178
0.1178
0.1178
0.1178
0.1178
0.1178
0.1178
0.1178
0.1178
0.1178
0.1178
0.1178
0.1178
0.1178
0.1202
0.1202
0.1202
0.1202
0.1202
0.1202
0.1202
0.1202
0.1202
0.1178
0.1178
0.1178
0.1178
0.1202
0.1202
0.1226
0.1226
0.1226
0.1226
0.1226
0.1226
0.1226
0.1226
0.1226
0.1226
0.1226
0.1226
0.1226
0.1226
0.1226
0.1226
0.1226
0.1226
0.1226
0.1250
0.1250
0.1274
0.1298
0.1322
0.1346
0.1370
0.1394
0.1418
0.1442
0.1442
0.1466
0.1466
0.1490
0.1490
0.1514
0.1538
0.1538
0.1563
0.1587
0.1611
0.1635
0.1659
0.1659
0.1683
0.1683
0.1683
0.1683
0.1683
0.1683
0.1659
0.1659
0.1635
0.1635
0.1611
0.1611
0.1587
0.1563
0.1538
0.1514
0.1490
0.1442
0.1418
0.1370
0.1322
0.1274
0.1226
0.1178
0.1154
0.1130
0.1082
0.1058
0.1058
0.1034
0.1034
0.1034
0.1010
0.1010
0.1010
0.1010
0.1010
0.1010
0.1034
0.1034
0.1034
0.1034
0.1034
0.1058
0.1058
0.1058
0.1058
0.1034
0.1034
0.1010
0.0986
0.0986
0.0962
0.0962
0.1010
0.1106
0.1274
0.1538
0.1923
0.2452
0.3101
0.3870
0.4760
0.5721
0.6731
0.7692
0.8558
0.9255
0.9760
0.9976
0.9904
0.9543
0.8918
0.8077
0.7067
0.5962
0.4856
0.3822
0.2885
0.2091
0.1466
0.1010
0.0673
0.0457
0.0337
0.0264
0.0240
0.0264
0.0288
0.0313
0.0337
0.0361
0.0385
0.0385
0.0409
0.0409
0.0409
0.0409
0.0409
0.0409
0.0409
0.0409
0.0433
0.0433
0.0433
0.0457
0.0457
0.0457
0.0481
0.0481
0.0481
0.0505
0.0505
0.0505
0.0505
0.0505
0.0505
0.0529
0.0529
0.0529
0.0529
0.0529
0.0529
0.0529
0.0553
0.0553
0.0577
0.0577
0.0577
0.0577
0.0601
0.0601
0.0601
0.0601
0.0625
0.0625
0.0625
0.0625
0.0649
0.0649
0.0649
0.0649
0.0649
0.0673
0.0673
0.0673
0.0673
0.0673
0.0673
0.0673
0.0697
0.0697
0.0697
0.0721
0.0721
0.0721
0.0745
0.0745
0.0769
0.0769
0.0793
0.0793
0.0817
0.0817
0.0841
0.0841
0.0841
0.0865
0.0865
0.0865
0.0889
0.0889
0.0913
0.0913
0.0938
0.0962
0.0962
0.0986
0.1010
0.1010
0.1034
0.1034
0.1058
0.1058
0.1082
0.1106
0.1106
0.1130
0.1154
0.1178
0.1202
0.1250
0.1274
0.1298
0.1322
0.1346
0.1370
0.1394
0.1418
0.1442
0.1466
0.1466
0.1490
0.1514
0.1538
0.1538
0.1563
0.1587
0.1587
0.1611
0.1611
0.1635
0.1635
0.1659
0.1659
0.1659
0.1659
0.1659
0.1683
0.1683
0.1683
0.1683
0.1683
0.1683
0.1683
0.1683
0.1659
0.1659
0.1659
0.1635
0.1635
0.1635
0.1611
0.1611
0.1587
0.1587
0.1563
0.1538
0.1514
0.1490
0.1466
0.1442
0.1394
0.1370
0.1322
0.1298
0.1250
0.1226
0.1202
0.1154
0.1130
0.1106
0.1082
0.1058
0.1034
0.1010
0.1010
0.0986
0.0962
0.0962
0.0938
0.0938
0.0913
0.0913
0.0889
0.0889
0.0865
0.0865
0.0865
0.0865
0.0865
0.0841
0.0841
0.0841
0.0841
0.0841
0.0841
0.0841
0.0817
0.0817
0.0817
0.0817
0.0817
0.0817
0.0817
0.0817
0.0817
0.0817
0.0817
0.0817
0.0841
0.0841
0.0841
0.0841
0.0841
0.0865
0.0865
0.0865
0.0865
0.0865
0.0865
0.0865
0.0865
0.0865
0.0865
0.0865
0.0865
0.0865
0.0889
0.0889
0.0889
0.0889
0.0913
0.0913
0.0913
0.0913
0.0938
0.0938
0.0938
0.0938
0.0938
0.0962
0.0962
0.0962
0.0962
0.0962
0.0986
0.0986
0.0986
0.0986
0.0986
0.1010
0.1010
0.1010
0.1010
0.1034
0.1034
0.1034
0.1034
0.1034
0.1058
0.1058
0.1058
0.1058
0.1058
0.1058
0.1058
0.1058
0.1058
0.1058
0.1034
0.1034
0.1034
0.1034
0.1034
0.1010
0.1010
0.1010
0.1010
0.1010
0.1010
0.1010
0.1010
0.1010
0.0986
0.0986
0.0986
0.0986
0.0986
0.0986
0.0962
0.0962
0.0962
0.0962
0.0962
0.0962
0.0962
0.0962
0.0962
0.0962
0.0962
0.0938
0.0938
0.0938
0.0938
0.0938
0.0938
0.0962
0.0962
0.0962
0.0962
0.0962
0.0962
0.0962
0.0962
0.0962
0.0962
0.0962
0.0938
0.0938
0.0938
0.0938
0.0938
0.0938
0.0938
0.0938
0.0938
0.0938
0.0938
0.0938
0.0938
0.0938
0.0913
0.0913
0.0913
0.0913
0.0913
0.0913
0.0913
0.0913
0.0913
0.0913
0.0913
0.0913
0.0913
0.0913
0.0913
0.0913
0.0913
0.0913
0.0913
0.0913
0.0913
0.0913
0.0913
0.0913
0.0913
0.0913
0.0938
0.0938
0.0938
0.0938
0.0938
0.0938
0.0938
0.0938
0.0913
0.0913
0.0913
0.0913
0.0913
0.0913
0.0913
0.0913
0.0913
0.0938
0.0938
0.0938
0.0938
0.0938
0.0938
0.0938
0.0938
0.0938
0.0938
0.0938
0.0938
0.0938
0.0938
0.0938
0.0938
0.0938
0.0938
0.0938
0.0938
0.0938
0.0938
0.0938
0.0938
0.0938
0.0938
0.0938
0.0938
0.0938
0.0938
0.0938
0.0938
0.0962
0.0962
0.0962
0.0962
0.0986
0.0986
0.0986
0.0986
0.0986
0.0986
0.0986
0.0986
0.0986
0.0986
0.0986
0.0986
0.0986
0.0986
0.0986
0.1010
0.1010
0.1010
0.1010
0.1010
0.1010
0.1010
0.1010
0.1010
0.1010
0.1010
0.1010
0.1010
0.1010
0.1010
0.1010
0.1010
0.1010
0.1010
0.1010
0.1010
0.1010
0.1010
0.0986
0.1010
0.1010
0.1010
0.1010
0.1010
0.1034
0.1034
0.1034
0.1034
0.1034
0.1034
0.1034
0.1034
0.1034
0.1010
0.1010
0.1010
0.1010
0.1010
0.1010
0.1010
0.1010
0.1010
0.1034
0.1034
0.1034
0.1034
0.1034
0.1058
0.1058
0.1058
0.1058
0.1058
0.1058
0.1058
0.1058
0.1058
0.1058
0.1058
0.1058
0.1058
0.1058
0.1082
0.1082
0.1082
0.1082
0.1082
0.1082
0.1082
0.1082
0.1082
0.1082
0.1082
0.1082
0.1082
0.1082
0.1082
0.1082
0.1082
0.1082
0.1082
0.1082
0.1082
0.1058
0.1058
0.1058
0.1058
0.1058
0.1058
0.1058
0.1058
0.1058
0.1058
0.1082
0.1082
0.1082
0.1082
0.1082
0.1082
0.1106
0.1106
0.1106
0.1106
0.1106
0.1106
0.1106
0.1106
0.1106
0.1106
0.1106
0.1106
0.1106
0.1106
0.1106
0.1106
0.1106
0.1106
0.1106
0.1106
0.1106
0.1106
0.1106
0.1106
0.1130
0.1130
0.1130
0.1130
0.1154
0.1154
0.1178
0.1202
0.1226
0.1250
0.1274
0.1298
0.1322
0.1346
0.1346
0.1370
0.1394
0.1394
0.1418
0.1442
0.1466
0.1490
0.1538
0.1563
0.1563
0.1587
0.1611
0.1611
0.1611
0.1611
0.1611
0.1611
0.1587
0.1587
0.1563
0.1538
0.1514
0.1514
0.1490
0.1466
0.1442
0.1394
0.1370
0.1346
0.1298
0.1250
0.1202
0.1178
0.1130
0.1106
0.1082
0.1058
0.1034
0.1034
0.1010
0.1010
0.0986
0.0986
0.0986
0.0986
0.0986
0.0962
0.0962
0.0962
0.0962
0.0962
0.0962
0.0962
0.0986
0.0986
0.0962
0.0962
0.0962
0.0962
0.0938
0.0913
0.0913
0.0889
0.0889
0.0913
0.1010
0.1178
0.1442
0.1827
0.2356
0.3029
0.3846
0.4736
0.5721
0.6731
0.7692
0.8558
0.9255
0.9736
0.9928
0.9832
0.9423
0.8774
0.7909
0.6875
0.5745
0.4639
0.3606
0.2668
0.1899
0.1274
0.0841
0.0505
0.0313
0.0168
0.0120
0.0096
0.0120
0.0144
0.0168
0.0216
0.0240
0.0264
0.0288
0.0288
0.0313
0.0313
0.0313
0.0313
0.0337
0.0337
0.0337
0.0361
0.0361
0.0361
0.0385
0.0385
0.0385
0.0385
0.0385
0.0409
0.0409
0.0409
0.0409
0.0409
0.0409
0.0409
0.0409
0.0409
0.0433
0.0433
0.0433
0.0457
0.0457
0.0457
0.0481
0.0481
0.0505
0.0505
0.0505
0.0505
0.0529
0.0529
0.0529
0.0529
0.0553
0.0553
0.0577
0.0577
0.0577
0.0601
0.0601
0.0601
0.0601
0.0601
0.0625
0.0625
0.0625
0.0625
0.0625
0.0649
0.0649
0.0649
0.0649
0.0673
0.0673
0.0673
0.0673
0.0673
0.0697
0.0697
0.0721
0.0721
0.0721
0.0745
0.0769
0.0769
0.0769
0.0793
0.0793
0.0817
0.0817
0.0841
0.0841
0.0865
0.0889
0.0889
0.0913
0.0913
0.0938
0.0962
0.0962
0.0986
0.0986
0.1010
0.1034
0.1058
0.1082
0.1082
0.1106
0.1130
0.1154
0.1178
0.1202
0.1226
0.1250
0.1274
0.1298
0.1322
0.1346
0.1370
0.1394
0.1394
0.1418
0.1442
0.1442
0.1466
0.1466
0.1490
0.1514
0.1514
0.1538
0.1538
0.1538
0.1538
0.1563
0.1563
0.1563
0.1563
0.1563
0.1563
0.1563
0.1563
0.1563
0.1563
0.1538
0.1538
0.1538
0.1514
0.1514
0.1514
0.1490
0.1490
0.1466
0.1466
0.1466
0.1442
0.1442
0.1418
0.1394
0.1394
0.1370
0.1346
0.1346
0.1322
0.1298
0.1274
0.1226
0.1202
0.1178
0.1154
0.1130
0.1106
0.1082
0.1058
0.1034
0.1034
0.1010
0.0986
0.0962
0.0938
0.0938
0.0938
0.0913
0.0913
0.0913
0.0913
0.0889
0.0889
0.0889
0.0865
0.0865
0.0865
0.0865
0.0865
0.0865
0.0865
0.0865
0.0865
0.0865
0.0865
0.0865
0.0865
0.0865
0.0865
0.0865
0.0865
0.0841
0.0841
0.0841
0.0865
0.0865
0.0865
0.0865
0.0865
0.0865
0.0889
0.0889
0.0889
0.0889
0.0889
0.0889
0.0913
0.0913
0.0913
0.0938
0.0938
0.0962
0.0962
0.0962
0.0986
0.1010
0.1010
0.1010
0.1010
0.1034
0.1034
0.1034
0.1034
0.1034
0.1034
0.1058
0.1058
0.1082
0.1082
0.1082
0.1106
0.1106
0.1106
0.1106
0.1106
0.1106
0.1106
0.1106
0.1106
0.1106
0.1106
0.1106
0.1106
0.1106
0.1106
0.1106
0.1106
0.1106
0.1106
0.1106
0.1106
0.1106
0.1106
0.1082
0.1082
0.1082
0.1082
0.1082
0.1082
0.1082
0.1082
0.1082
0.1082
0.1082
0.1082
0.1082
0.1082
0.1082
0.1058
0.1058
0.1058
0.1058
0.1058
0.1034
0.1034
0.1034
0.1034
0.1010
0.1010
0.1010
0.1010
0.1010
0.1010
0.1010
0.1010
0.1010
0.1010
0.1010
0.0986
0.0986
0.0986
0.0986
0.0986
0.0986
0.0986
0.0986
0.0986
0.0986
0.0986
0.0986
0.0986
0.0986
0.0986
0.0986
0.0986
0.0986
0.0986
0.0986
0.0986
0.0986
0.0986
0.0986
0.0986
0.0986
0.0986
0.0986
0.0986
0.0986
0.0986
0.0986
0.0986
0.0986
0.0986
0.0986
0.0986
0.0986
0.0962
0.0962
0.0962
0.0962
0.0962
0.0962
0.0962
0.0962
0.0962
0.0962
0.0962
0.0962
0.0986
0.0986
0.0986
0.0986
0.0986
0.0986
0.0986
0.0986
0.0986
0.0986
0.1010
0.1010
0.1010
0.1010
0.1010
0.1010
0.1010
0.1010
0.1010
0.1010
0.1010
0.1010
0.1010
0.1010
0.1010
0.1010
0.1010
0.1034
0.1034
0.1034
0.1034
0.1034
0.1034
0.1034
0.1034
0.1010
0.1010
0.1010
0.1010
0.1010
0.1010
0.1010
0.1010
0.1010
0.1010
0.1010
0.1010
0.1010
0.1034
0.1034
0.1034
0.1034
0.1034
0.1034
0.1034
0.1034
0.1034
0.1058
0.1058
0.1058
0.1058
0.1058
0.1058
0.1058
0.1058
0.1058
0.1082
0.1082
0.1082
0.1082
0.1082
0.1082
0.1082
0.1082
0.1082
0.1082
0.1082
0.1106
0.1106
0.1106
0.1106
0.1106
0.1106
0.1106
0.1106
0.1106
0.1106
0.1106
0.1106
0.1106
0.1106
0.1106
0.1106
0.1106
0.1106
0.1106
0.1106
0.1106
0.1106
0.1106
0.1106
0.1106
0.1106
0.1130
0.1130
0.1154
0.1154
0.1178
0.1202
0.1226
0.1250
0.1274
0.1298
0.1322
0.1346
0.1346
0.1370
0.1394
0.1394
0.1418
0.1442
0.1466
0.1490
0.1514
0.1538
0.1563
0.1587
0.1587
0.1611
0.1611
0.1611
0.1611
0.1587
0.1587
0.1563
0.1538
0.1538
0.1538
0.1514
0.1490
0.1490
0.1466
0.1442
0.1418
0.1370
0.1346
0.1298
0.1250
0.1202
0.1154
0.1130
0.1082
0.1058
0.1034
0.1010
0.0986
0.0962
0.0962
0.0938
0.0938
0.0938
0.0938
0.0938
0.0938
0.0938
0.0938
0.0938
0.0962
0.0962
0.0962
0.0962
0.0962
0.0962
0.0962
0.0962
0.0962
0.0938
0.0913
0.0889
0.0889
0.0889
0.0938
0.1034
0.1178
0.1442
0.1827
0.2332
0.2957
0.3726
0.4591
0.5529
0.6514
0.7452
0.8317
0.9014
0.9543
0.9784
0.9712
0.9375
0.8750
0.7933
0.6923
0.5817
0.4736
0.3702
0.2764
0.1971
0.1322
0.0865
0.0553
0.0337
0.0192
0.0120
0.0096
0.0120
0.0144
0.0192
0.0216
0.0264
0.0288
0.0313
0.0313
0.0337
0.0361
0.0361
0.0361
0.0361
0.0385
0.0385
0.0409
0.0409
0.0409
0.0433
0.0433
0.0433
0.0433
0.0433
0.0457
0.0457
0.0457
0.0457
0.0481
0.0481
0.0481
0.0505
0.0505
0.0505
0.0529
0.0529
0.0529
0.0529
0.0553
0.0553
0.0553
0.0553
0.0553
0.0553
0.0553
0.0577
0.0577
0.0577
0.0577
0.0577
0.0577
0.0577
0.0577
0.0601
0.0601
0.0601
0.0601
0.0625
0.0625
0.0649
0.0649
0.0673
0.0673
0.0673
0.0697
0.0697
0.0697
0.0721
0.0721
0.0721
0.0745
0.0745
0.0769
0.0769
0.0769
0.0793
0.0793
0.0793
0.0793
0.0817
0.0817
0.0817
0.0841
0.0841
0.0865
0.0889
0.0889
0.0913
0.0938
0.0938
0.0962
0.0962
0.0986
0.1010
0.1010
0.1034
0.1058
0.1082
0.1106
0.1130
0.1154
0.1178
0.1202
0.1226
0.1274
0.1274
0.1298
0.1322
0.1346
0.1370
0.1394
0.1418
0.1442
0.1466
0.1490
0.1514
0.1538
0.1563
0.1587
0.1611
0.1635
0.1635
0.1659
0.1659
0.1683
0.1683
0.1707
0.1707
0.1707
0.1707
0.1707
0.1707
0.1707
0.1707
0.1707
0.1707
0.1707
0.1707
0.1707
0.1683
0.1683
0.1683
0.1659
0.1659
0.1635
0.1635
0.1611
0.1587
0.1563
0.1538
0.1538
0.1514
0.1490
0.1466
0.1442
0.1418
0.1394
0.1346
0.1322
0.1274
0.1226
0.1202
0.1178
0.1130
0.1106
0.1082
0.1058
0.1034
0.1034
0.1010
0.0986
0.0986
0.0962
0.0962
0.0938
0.0938
0.0913
0.0913
0.0889
0.0889
0.0865
0.0865
0.0865
0.0841
0.0841
0.0841
0.0841
0.0841
0.0817
0.0817
0.0817
0.0817
0.0817
0.0817
0.0817
0.0817
0.0817
0.0817
0.0841
0.0841
0.0841
0.0841
0.0841
0.0841
0.0841
0.0865
0.0865
0.0865
0.0865
0.0865
0.0865
0.0865
0.0865
0.0889
0.0889
0.0889
0.0889
0.0889
0.0889
0.0913
0.0913
0.0913
0.0938
0.0938
0.0938
0.0962
0.0962
0.0962
0.0986
0.0986
0.0986
0.1010
0.1010
0.1010
0.1010
0.1034
0.1034
0.1034
0.1058
0.1058
0.1082
0.1082
0.1106
0.1106
0.1106
0.1106
0.1130
0.1130
0.1130
0.1130
0.1130
0.1130
0.1130
0.1130
0.1154
0.1154
0.1154
0.1154
0.1154
0.1154
0.1154
0.1154
0.1130
0.1130
0.1130
0.1130
0.1130
0.1130
0.1130
0.1130
0.1130
0.1130
0.1106
0.1106
0.1106
0.1106
0.1106
0.1082
0.1082
0.1082
0.1082
0.1058
0.1058
0.1058
0.1058
0.1034
0.1034
0.1034
0.1034
0.1034
0.1034
0.1034
0.1034
0.1058
0.1058
0.1058
0.1058
0.1058
0.1034
0.1034
0.1034
0.1034
0.1034
0.1034
0.1034
0.1034
0.1034
0.1034
0.1034
0.1034
0.1034
0.1034
0.1034
0.1034
0.1034
0.1034
0.1034
0.1034
0.1034
0.1010
0.1010
0.1010
0.1010
0.1010
0.1010
0.1010
0.1010
0.1010
0.1010
0.1010
0.1010
0.1034
0.1034
0.1034
0.1034
0.1034
0.1034
0.1034
0.1034
0.1034
0.1034
0.1034
0.1034
0.1034
0.1034
0.1034
0.1034
0.1034
0.1034
0.1034
0.1034
0.1034
0.1034
0.1034
0.1034
0.1034
0.1034
0.1034
0.1034
0.1034
0.1034
0.1058
0.1058
0.1058
0.1058
0.1058
0.1058
0.1058
0.1058
0.1058
0.1058
0.1058
0.1058
0.1058
0.1058
0.1058
0.1058
0.1058
0.1058
0.1058
0.1058
0.1058
0.1058
0.1082
0.1082
0.1082
0.1082
0.1082
0.1106
0.1106
0.1106
0.1106
0.1106
0.1106
0.1106
0.1106
0.1106
0.1106
0.1106
0.1106
0.1106
0.1106
0.1106
0.1106
0.1106
0.1106
0.1106
0.1106
0.1106
0.1106
0.1106
0.1106
0.1106
0.1106
0.1106
0.1106
0.1106
0.1106
0.1106
0.1106
0.1106
0.1130
0.1130
0.1130
0.1130
0.1106
0.1106
0.1106
0.1106
0.1106
0.1106
0.1106
0.1106
0.1130
0.1130
0.1130
0.1130
0.1130
0.1106
0.1106
0.1106
0.1106
0.1106
0.1106
0.1106
0.1106
0.1130
0.1130
0.1130
0.1130
0.1130
0.1130
0.1130
0.1130
0.1130
0.1154
0.1154
0.1154
0.1178
0.1202
0.1202
0.1226
0.1250
0.1274
0.1298
0.1322
0.1346
0.1370
0.1370
0.1394
0.1394
0.1418
0.1442
0.1466
0.1466
0.1490
0.1514
0.1538
0.1538
0.1563
0.1563
0.1587
0.1587
0.1587
0.1587
0.1587
0.1563
0.1563
0.1538
0.1538
0.1514
0.1514
0.1490
0.1466
0.1466
0.1442
0.1418
0.1394
0.1346
0.1298
0.1250
0.1202
0.1154
0.1106
0.1082
0.1058
0.1034
0.1010
0.1010
0.1010
0.0986
0.0986
0.0986
0.0962
0.0962
0.0962
0.0962
0.0962
0.0962
0.0962
0.0986
0.0986
0.0986
0.1010
0.1010
0.1010
0.1010
0.0986
0.0986
0.0962
0.0938
0.0938
0.0913
0.0889
0.0889
0.0962
0.1058
0.1226
0.1514
0.1923
0.2476
0.3149
0.3966
0.4880
0.5865
0.6851
0.7788
0.8630
0.9303
0.9760
0.9904
0.9760
0.9327
0.8654
0.7764
0.6707
0.5601
0.4519
0.3486
0.2596
0.1827
0.1250
0.0817
0.0529
0.0337
0.0216
0.0168
0.0144
0.0168
0.0192
0.0216
0.0240
0.0264
0.0288
0.0313
0.0337
0.0337
0.0361
0.0361
0.0361
0.0361
0.0361
0.0361
0.0361
0.0361
0.0361
0.0385
0.0385
0.0385
0.0385
0.0409
0.0409
0.0409
0.0433
0.0433
0.0457
0.0457
0.0457
0.0481
0.0481
0.0481
0.0481
0.0481
0.0505
0.0505
0.0505
0.0505
0.0505
0.0505
0.0505
0.0529
0.0529
0.0529
0.0553
0.0553
0.0553
0.0577
0.0577
0.0577
0.0601
0.0601
0.0601
0.0601
0.0601
0.0625
0.0625
0.0625
0.0625
0.0649
0.0649
0.0649
0.0649
0.0673
0.0673
0.0673
0.0673
0.0697
0.0697
0.0697
0.0721
0.0721
0.0721
0.0745
0.0745
0.0769
0.0769
0.0769
0.0793
0.0793
0.0793
0.0793
0.0817
0.0817
0.0841
0.0865
0.0865
0.0889
0.0913
0.0913
0.0938
0.0962
0.0986
0.0986
0.1010
0.1034
0.1058
0.1058
0.1082
0.1106
0.1130
0.1154
0.1178
0.1202
0.1226
0.1274
0.1298
0.1322
0.1370
0.1394
0.1418
0.1442
0.1466
0.1490
0.1514
0.1538
0.1538
0.1563
0.1587
0.1611
0.1635
0.1635
0.1659
0.1659
0.1683
0.1683
0.1683
0.1707
0.1707
0.1707
0.1731
0.1731
0.1731
0.1731
0.1731
0.1731
0.1731
0.1731
0.1731
0.1731
0.1707
0.1707
0.1683
0.1683
0.1659
0.1635
0.1611
0.1587
0.1563
0.1538
0.1514
0.1490
0.1442
0.1418
0.1370
0.1346
0.1298
0.1274
0.1226
0.1202
0.1178
0.1130
0.1106
0.1058
0.1034
0.1010
0.0986
0.0962
0.0962
0.0938
0.0913
0.0913
0.0889
0.0889
0.0865
0.0865
0.0865
0.0841
0.0841
0.0841
0.0841
0.0817
0.0817
0.0817
0.0817
0.0817
0.0817
0.0817
0.0793
0.0793
0.0793
0.0793
0.0793
0.0793
0.0793
0.0793
0.0817
0.0817
0.0817
0.0817
0.0817
0.0817
0.0817
0.0841
0.0841
0.0841
0.0841
0.0841
0.0841
0.0841
0.0841
0.0865
0.0865
0.0865
0.0889
0.0889
0.0913
0.0913
0.0913
0.0913
0.0913
0.0938
0.0938
0.0938
0.0938
0.0938
0.0938
0.0962
0.0962
0.0962
0.0986
0.0986
0.1010
0.1010
0.1010
0.1010
0.1034
0.1034
0.1034
0.1034
0.1034
0.1058
0.1058
0.1058
0.1082
0.1082
0.1082
0.1082
0.1106
0.1106
0.1106
0.1106
0.1106
0.1106
0.1106
0.1106
0.1106
0.1106
0.1106
0.1106
0.1106
0.1106
0.1106
0.1106
0.1106
0.1106
0.1082
0.1082
0.1082
0.1082
0.1058
0.1058
0.1058
0.1058
0.1058
0.1058
0.1058
0.1058
0.1058
0.1058
0.1058
0.1058
0.1058
0.1058
0.1034
0.1034
0.1034
0.1034
0.1034
0.1034
0.1034
0.1034
0.1034
0.1034
0.1010
0.1010
0.1010
0.1010
0.1010
0.0986
0.0986
0.0986
0.0986
0.0986
0.0986
0.0986
0.0986
0.1010
0.1010
0.1010
0.1010
0.1010
0.1010
0.1010
0.1010
0.1010
0.1010
0.1010
0.1010
0.0986
0.0986
0.0986
0.0986
0.1010
0.1010
0.1010
0.1010
0.1010
0.1010
0.1010
0.1010
0.1010
0.1010
0.1010
0.1010
0.1010
0.1010
0.1010
0.1010
0.1010
0.1010
0.1010
0.1010
0.1010
0.0986
0.0986
0.0986
0.0986
0.0986
0.0986
0.0986
0.0986
0.0986
0.0986
0.0986
0.0986
0.0986
0.1010
0.1010
0.1010
0.1010
0.1010
0.1034
0.1034
0.1034
0.1034
0.1034
0.1034
0.1034
0.1034
0.1034
0.1034
0.1034
0.1034
0.1034
0.1034
0.1034
0.1034
0.1034
0.1058
0.1058
0.1058
0.1058
0.1058
0.1058
0.1058
0.1058
0.1058
0.1058
0.1058
0.1058
0.1082
0.1082
0.1082
0.1082
0.1082
0.1082
0.1058
0.1058
0.1058
0.1058
0.1058
0.1058
0.1058
0.1058
0.1058
0.1058
0.1058
0.1058
0.1058
0.1058
0.1058
0.1058
0.1058
0.1082
0.1082
0.1082
0.1082
0.1082
0.1082
0.1082
0.1106
0.1106
0.1082
0.1082
0.1106
0.1106
0.1106
0.1106
0.1106
0.1106
0.1106
0.1082
0.1082
0.1082
0.1082
0.1082
0.1082
0.1058
0.1058
0.1058
0.1058
0.1058
0.1058
0.1058
0.1058
0.1082
0.1082
0.1082
0.1082
0.1106
0.1106
0.1106
0.1106
0.1130
0.1130
0.1130
0.1130
0.1130
0.1130
0.1130
0.1130
0.1130
0.1130
0.1130
0.1130
0.1130
0.1130
0.1130
0.1130
0.1130
0.1130
0.1130
0.1130
0.1154
0.1154
0.1154
0.1154
0.1154
0.1178
0.1178
0.1178
0.1178
0.1178
0.1154
0.1154
0.1154
0.1154
0.1154
0.1178
0.1178
0.1202
0.1226
0.1250
0.1274
0.1298
0.1322
0.1346
0.1346
0.1370
0.1370
0.1394
0.1394
0.1418
0.1418
0.1442
0.1466
0.1490
0.1514
0.1538
0.1563
0.1563
0.1587
0.1587
0.1611
0.1587
0.1587
0.1587
0.1587
0.1563
0.1563
0.1563
0.1538
0.1538
0.1514
0.1490
0.1466
0.1442
0.1394
0.1346
0.1298
0.1250
0.1202
0.1154
0.1130
0.1106
0.1058
0.1058
0.1034
0.1010
0.1010
0.0986
0.0986
0.0962
0.0962
0.0938
0.0938
0.0938
0.0938
0.0938
0.0938
0.0938
0.0938
0.0938
0.0962
0.0962
0.0962
0.0962
0.0962
0.0938
0.0938
0.0913
0.0889
0.0865
0.0841
0.0841
0.0865
0.0962
0.1106
0.1370
0.1755
0.2260
0.2933
0.3702
0.4591
0.5577
0.6563
0.7524
0.8413
0.9135
0.9615
0.9856
0.9784
0.9423
0.8798
0.7957
0.6947
0.5841
0.4736
0.3678
0.2740
0.1947
0.1298
0.0841
0.0505
0.0264
0.0144
0.0072
0.0048
0.0048
0.0072
0.0120
0.0144
0.0168
0.0192
0.0216
0.0240
0.0264
0.0264
0.0264
0.0264
0.0288
0.0288
0.0288
0.0288
0.0288
0.0288
0.0313
0.0313
0.0313
0.0337
0.0337
0.0337
0.0361
0.0361
0.0361
0.0361
0.0385
0.0385
0.0385
0.0385
0.0385
0.0385
0.0409
0.0409
0.0409
0.0433
0.0433
0.0433
0.0457
0.0457
0.0481
0.0481
0.0481
0.0505
0.0505
0.0505
0.0529
0.0529
0.0529
0.0529
0.0529
0.0529
0.0529
0.0529
0.0529
0.0529
0.0529
0.0553
0.0553
0.0553
0.0577
0.0577
0.0577
0.0601
0.0601
0.0601
0.0625
0.0625
0.0625
0.0649
0.0649
0.0649
0.0673
0.0673
0.0673
0.0697
0.0697
0.0721
0.0721
0.0745
0.0745
0.0769
0.0769
0.0793
0.0793
0.0817
0.0817
0.0841
0.0841
0.0865
0.0889
0.0889
0.0913
0.0938
0.0962
0.0986
0.1010
0.1034
0.1058
0.1058
0.1082
0.1106
0.1130
0.1154
0.1178
0.1226
0.1250
0.1274
0.1298
0.1322
0.1370
0.1394
0.1418
0.1442
0.1466
0.1466
0.1490
0.1514
0.1538
0.1563
0.1563
0.1587
0.1587
0.1611
0.1611
0.1611
0.1611
0.1611
0.1635
0.1635
0.1635
0.1635
0.1635
0.1635
0.1635
0.1635
0.1635
0.1611
0.1611
0.1611
0.1587
0.1587
0.1563
0.1563
0.1538
0.1538
0.1514
0.1490
0.1466
0.1442
0.1418
0.1394
0.1370
0.1346
0.1298
0.1274
0.1226
0.1202
0.1178
0.1130
0.1106
0.1082
0.1058
0.1034
0.1010
0.0986
0.0962
0.0962
0.0938
0.0913
0.0913
0.0889
0.0865
0.0865
0.0841
0.0841
0.0841
0.0817
0.0817
0.0817
0.0817
0.0817
0.0817
0.0817
0.0793
0.0793
0.0793
0.0793
0.0769
0.0769
0.0769
0.0769
0.0769
0.0769
0.0769
0.0769
0.0769
0.0769
0.0769
0.0769
0.0769
0.0769
0.0793
0.0793
0.0793
0.0793
0.0793
0.0817
0.0817
0.0817
0.0841
0.0841
0.0841
0.0841
0.0841
0.0865
0.0865
0.0865
0.0865
0.0865
0.0889
0.0889
0.0889
0.0889
0.0889
0.0913
0.0913
0.0938
0.0938
0.0962
0.0962
0.0962
0.0962
0.0986
0.0986
0.0986
0.1010
0.1010
0.1010
0.1034
0.1034
0.1058
0.1058
0.1058
0.1058
0.1058
0.1058
0.1058
0.1058
0.1058
0.1082
0.1082
0.1082
0.1082
0.1082
0.1082
0.1082
0.1082
0.1082
0.1082
0.1082
0.1058
0.1058
0.1058
0.1058
0.1034
0.1034
0.1034
0.1034
0.1034
0.1034
0.1010
0.1010
0.1010
0.1010
0.1010
0.1010
0.1010
0.1010
0.0986
0.0986
0.0986
0.0986
0.0986
0.0986
0.0986
0.0986
0.0986
0.0986
0.0962
0.0962
0.0962
0.0962
0.0962
0.0962
0.0962
0.0962
0.0962
0.0962
0.0962
0.0962
0.0962
0.0962
0.0962
0.0962
0.0962
0.0962
0.0962
0.0962
0.0962
0.0962
0.0962
0.0962
0.0962
0.0962
0.0962
0.0962
0.0962
0.0962
0.0962
0.0962
0.0962
0.0962
0.0962
0.0962
0.0962
0.0962
0.0962
0.0938
0.0962
0.0962
0.0962
0.0962
0.0962
0.0962
0.0962
0.0962
0.0962
0.0962
0.0962
0.0962
0.0962
0.0986
0.0986
0.0986
0.0986
0.0986
0.0986
0.0986
0.0986
0.0986
0.0986
0.0986
0.0962
0.0962
0.0962
0.0962
0.0962
0.0962
0.0962
0.0962
0.0986
0.0986
0.0986
0.0986
0.1010
0.1010
0.1010
0.1010
0.1010
0.1010
0.1010
0.1010
0.1010
0.1034
0.1034
0.1034
0.1034
0.1034
0.1058
0.1058
0.1058
0.1058
0.1058
0.1034
0.1034
0.1034
0.1034
0.1034
0.1034
0.1034
0.1034
0.1034
0.1034
0.1034
0.1034
0.1058
0.1058
0.1058
0.1034
0.1034
0.1034
0.1034
0.1034
0.1034
0.1034
0.1058
0.1058
0.1058
0.1058
0.1058
0.1058
0.1082
0.1082
0.1082
0.1082
0.1058
0.1058
0.1058
0.1058
0.1082
0.1082
0.1082
0.1082
0.1106
0.1106
0.1106
0.1106
0.1106
0.1106
0.1130
0.1130
0.1154
0.1154
0.1178
0.1202
0.1226
0.1250
0.1274
0.1298
0.1298
0.1322
0.1346
0.1346
0.1370
0.1394
0.1418
0.1418
0.1442
0.1466
0.1490
0.1514
0.1538
0.1563
0.1563
0.1587
0.1587
0.1587
0.1587
0.1587
0.1587
0.1563
0.1563
0.1538
0.1538
0.1514
0.1490
0.1466
0.1466
0.1418
0.1394
0.1370
0.1322
0.1274
0.1226
0.1178
0.1130
0.1106
0.1058
0.1034
0.1010
0.0986
0.0962
0.0962
0.0938
0.0938
0.0938
0.0938
0.0938
0.0938
0.0938
0.0938
0.0938
0.0938
0.0938
0.0938
0.0938
0.0938
0.0962
0.0962
0.0938
0.0938
0.0938
0.0938
0.0913
0.0889
0.0889
0.0889
0.0889
0.0938
0.1034
0.1202
0.1466
0.1827
0.2332
0.2957
0.3726
0.4567
0.5505
0.6442
0.7332
0.8149
0.8798
0.9231
0.9399
0.9255
0.8846
0.8173
0.7308
0.6298
0.5216
0.4135
0.3149
0.2284
0.1563
0.1010
0.0625
0.0361
0.0192
0.0096
0.0048
0.0072
0.0096
0.0144
0.0192
0.0240
0.0288
0.0337
0.0361
0.0385
0.0409
0.0409
0.0409
0.0433
0.0433
0.0457
0.0457
0.0457
0.0457
0.0481
0.0481
0.0481
0.0481
0.0481
0.0481
0.0481
0.0505
0.0505
0.0505
0.0505
0.0529
0.0529
0.0553
0.0553
0.0577
0.0577
0.0577
0.0601
0.0601
0.0601
0.0601
0.0625
0.0625
0.0625
0.0625
0.0625
0.0625
0.0625
0.0649
0.0649
0.0649
0.0673
0.0673
0.0673
0.0673
0.0697
0.0697
0.0697
0.0697
0.0721
0.0721
0.0721
0.0721
0.0721
0.0745
0.0745
0.0745
0.0745
0.0745
0.0769
0.0769
0.0769
0.0769
0.0793
0.0793
0.0793
0.0793
0.0817
0.0817
0.0841
0.0841
0.0865
0.0865
0.0889
0.0889
0.0913
0.0913
0.0938
0.0962
0.0962
0.0986
0.1010
0.1010
0.1034
0.1058
0.1082
0.1082
0.1106
0.1130
0.1154
0.1178
0.1202
0.1226
0.1274
0.1298
0.1322
0.1346
0.1370
0.1394
0.1442
0.1466
0.1490
0.1514
0.1514
0.1538
0.1563
0.1587
0.1611
0.1635
0.1659
0.1683
0.1707
0.1731
0.1755
0.1779
0.1779
0.1803
0.1803
0.1827
0.1827
0.1827
0.1827
0.1827
0.1827
0.1827
0.1827
0.1827
0.1827
0.1827
0.1827
0.1827
0.1827
0.1803
0.1803
0.1779
0.1755
0.1731
0.1707
0.1683
0.1659
0.1635
0.1587
0.1563
0.1538
0.1490
0.1466
0.1418
0.1394
0.1346
0.1322
0.1274
0.1226
0.1202
0.1178
0.1130
0.1106
0.1082
0.1058
0.1034
0.1010
0.0986
0.0962
0.0962
0.0938
0.0913
0.0913
0.0889
0.0889
0.0865
0.0865
0.0865
0.0841
0.0841
0.0841
0.0817
0.0817
0.0817
0.0817
0.0817
0.0817
0.0817
0.0793
0.0817
0.0817
0.0817
0.0817
0.0817
0.0817
0.0817
0.0817
0.0817
0.0841
0.0841
0.0841
0.0865
0.0865
0.0865
0.0865
0.0865
0.0865
0.0865
0.0865
0.0865
0.0889
0.0889
0.0889
0.0889
0.0889
0.0889
0.0889
0.0889
0.0889
0.0889
0.0913
0.0913
0.0913
0.0913
0.0938
0.0938
0.0938
0.0962
0.0962
0.0962
0.0986
0.0986
0.1010
0.1010
0.1010
0.1034
0.1034
0.1058
0.1058
0.1058
0.1082
0.1082
0.1082
0.1106
0.1106
0.1106
0.1106
0.1106
0.1106
0.1106
0.1106
0.1106
0.1106
0.1106
0.1106
0.1106
0.1082
0.1082
0.1082
0.1082
0.1082
0.1106
0.1106
0.1106
0.1082
0.1082
0.1082
0.1082
0.1058
0.1058
0.1058
0.1034
0.1034
0.1034
0.1010
0.1010
0.1010
0.1010
0.0986
0.0986
0.0986
0.0962
0.0962
0.0962
0.0962
0.0962
0.0962
0.0962
0.0962
0.0962
0.0962
0.0962
0.0962
0.0962
0.0962
0.0962
0.0962
0.0962
0.0962
0.0962
0.0962
0.0962
0.0962
0.0962
0.0962
0.0938
0.0938
0.0938
0.0938
0.0938
0.0938
0.0938
0.0938
0.0938
0.0938
0.0938
0.0938
0.0938
0.0938
0.0938
0.0938
0.0938
0.0938
0.0938
0.0938
0.0938
0.0938
0.0938
0.0938
0.0962
0.0962
0.0962
0.0962
0.0962
0.0962
0.0962
0.0962
0.0962
0.0938
0.0938
0.0938
0.0938
0.0938
0.0962
0.0962
0.0962
0.0962
0.0962
0.0962
0.0962
0.0962
0.0962
0.0962
0.0962
0.0986
0.0986
0.0986
0.0986
0.0986
0.0986
0.0986
0.0986
0.0986
0.1010
0.1010
0.1010
0.1010
0.1010
0.1010
0.1010
0.0986
0.0986
0.1010
0.1010
0.1010
0.1010
0.1010
0.1010
0.1010
0.1010
0.1010
0.1010
0.1010
0.0986
0.0986
0.0986
0.0986
0.1010
0.1010
0.1010
0.1010
0.1010
0.1010
0.1034
0.1034
0.1034
0.1034
0.1034
0.1034
0.1034
0.1034
0.1034
0.1034
0.1058
0.1058
0.1058
0.1058
0.1058
0.1058
0.1082
0.1082
0.1082
0.1082
0.1082
0.1082
0.1082
0.1082
0.1082
0.1106
0.1106
0.1106
0.1130
0.1130
0.1154
0.1178
0.1202
0.1226
0.1250
0.1274
0.1298
0.1322
0.1322
0.1346
0.1370
0.1394
0.1394
0.1418
0.1442
0.1466
0.1490
0.1514
0.1538
0.1563
0.1563
0.1587
0.1587
0.1587
0.1587
0.1587
0.1563
0.1563
0.1538
0.1538
0.1514
0.1514
0.1490
0.1490
0.1466
0.1466
0.1442
0.1418
0.1370
0.1346
0.1298
0.1250
0.1202
0.1154
0.1130
0.1082
0.1058
0.1034
0.1010
0.0986
0.0986
0.0962
0.0962
0.0962
0.0962
0.0962
0.0962
0.0962
0.0962
0.0962
0.0962
0.0962
0.0962
0.0962
0.0962
0.0962
0.0962
0.0962
0.0962
0.0938
0.0938
0.0938
0.0913
0.0889
0.0889
0.0865
0.0889
0.0938
0.1058
0.1274
0.1587
0.2043
0.2620
0.3341
0.4207
0.5144
0.6130
0.7115
0.8053
0.8846
0.9447
0.9808
0.9856
0.9615
0.9087
0.8317
0.7356
0.6298
0.5168
0.4111
0.3125
0.2284
0.1587
0.1058
0.0673
0.0433
0.0264
0.0168
0.0120
0.0120
0.0144
0.0192
0.0216
0.0240
0.0264
0.0288
0.0313
0.0313
0.0337
0.0337
0.0337
0.0337
0.0337
0.0337
0.0361
0.0361
0.0361
0.0385
0.0385
0.0409
0.0409
0.0433
0.0433
0.0433
0.0457
0.0457
0.0457
0.0457
0.0457
0.0457
0.0481
0.0481
0.0481
0.0481
0.0505
0.0505
0.0505
0.0529
0.0529
0.0529
0.0529
0.0553
0.0553
0.0553
0.0577
0.0577
0.0577
0.0601
0.0601
0.0601
0.0601
0.0625
0.0625
0.0625
0.0625
0.0625
0.0625
0.0625
0.0625
0.0625
0.0625
0.0625
0.0625
0.0649
0.0649
0.0673
0.0673
0.0697
0.0697
0.0721
0.0721
0.0745
0.0745
0.0769
0.0769
0.0769
0.0793
0.0793
0.0817
0.0817
0.0841
0.0841
0.0865
0.0865
0.0889
0.0889
0.0889
0.0913
0.0913
0.0938
0.0962
0.0962
0.0986
0.1010
0.1010
0.1034
0.1058
0.1082
0.1106
0.1106
0.1130
0.1154
0.1202
0.1226
0.1250
0.1298
0.1322
0.1346
0.1394
0.1418
0.1442
0.1466
0.1490
0.1514
0.1538
0.1563
0.1587
0.1611
0.1611
0.1635
0.1659
0.1683
0.1707
0.1707
0.1731
0.1731
0.1755
0.1755
0.1779
0.1779
0.1779
0.1779
0.1779
0.1779
0.1779
0.1779
0.1779
0.1755
0.1755
0.1755
0.1755
0.1731
0.1731
0.1707
0.1707
0.1683
0.1659
0.1635
0.1611
0.1563
0.1538
0.1514
0.1490
0.1442
0.1418
0.1370
0.1346
0.1298
0.1250
0.1202
0.1178
0.1130
0.1106
0.1058
0.1034
0.1010
0.0986
0.0962
0.0938
0.0938
0.0913
0.0889
0.0889
0.0865
0.0865
0.0841
0.0841
0.0817
0.0817
0.0817
0.0793
0.0793
0.0793
0.0793
0.0793
0.0793
0.0793
0.0793
0.0793
0.0793
0.0793
0.0793
0.0793
0.0793
0.0793
0.0793
0.0793
0.0793
0.0793
0.0793
0.0793
0.0793
0.0793
0.0793
0.0817
0.0817
0.0817
0.0817
0.0841
0.0841
0.0841
0.0841
0.0841
0.0841
0.0841
0.0841
0.0841
0.0841
0.0865
0.0865
0.0865
0.0865
0.0865
0.0889
0.0889
0.0889
0.0913
0.0913
0.0913
0.0938
0.0938
0.0962
0.0962
0.0962
0.0962
0.0986
0.0986
0.0986
0.0986
0.1010
0.1010
0.1010
0.1010
0.1010
0.1034
0.1034
0.1034
0.1058
0.1058
0.1082
0.1082
0.1106
0.1106
0.1106
0.1106
0.1130
0.1130
0.1130
0.1130
0.1130
0.1130
0.1130
0.1130
0.1130
0.1130
0.1130
0.1130
0.1106
0.1106
0.1106
0.1106
0.1082
0.1082
0.1082
0.1082
0.1058
0.1058
0.1058
0.1058
0.1034
0.1034
0.1034
0.1034
0.1034
0.1034
0.1034
0.1034
0.1010
0.1010
0.1010
0.1010
0.1010
0.1010
0.0986
0.0986
0.0986
0.0986
0.0986
0.0986
0.0986
0.0986
0.0986
0.0986
0.0986
0.0986
0.0986
0.0986
0.0986
0.0986
0.1010
0.1010
0.1010
0.1010
0.1010
0.1010
0.1010
0.1010
0.1010
0.0986
0.0986
0.0986
0.0986
0.0986
0.0986
0.0986
0.0986
0.0986
0.0986
0.0986
0.0986
0.0986
0.0986
0.0986
0.0986
0.0986
0.0986
0.0986
0.0986
0.0986
0.0986
0.0986
0.0986
0.0986
0.0986
0.0986
0.0986
0.0986
0.0986
0.0986
0.0986
0.0986
0.0986
0.0986
0.0986
0.1010
0.1010
0.1010
0.1010
0.1034
0.1034
0.1034
0.1034
0.1034
0.1034
0.1034
0.1034
0.1034
0.1034
0.1034
0.1034
0.1034
0.1034
0.1034
0.1034
0.1034
0.1034
0.1034
0.1034
0.1034
0.1034
0.1034
0.1034
0.1034
0.1034
0.1034
0.1034
0.1058
0.1058
0.1058
0.1058
0.1058
0.1058
0.1058
0.1058
0.1058
0.1058
0.1058
0.1058
0.1058
0.1058
0.1058
0.1058
0.1058
0.1058
0.1058
0.1058
0.1082
0.1082
0.1082
0.1082
0.1082
0.1082
0.1082
0.1082
0.1082
0.1082
0.1082
0.1082
0.1082
0.1082
0.1082
0.1082
0.1082
0.1082
0.1082
0.1082
0.1082
0.1082
0.1058
0.1058
0.1058
0.1058
0.1058
0.1058
0.1058
0.1058
0.1058
0.1058
0.1082
0.1082
0.1082
0.1082
0.1106
0.1106
0.1106
0.1106
0.1106
0.1106
0.1106
0.1106
0.1106
0.1106
0.1106
0.1106
0.1106
0.1106
0.1106
0.1106
0.1106
0.1106
0.1106
0.1106
0.1106
0.1106
0.1106
0.1106
0.1106
0.1106
0.1106
0.1106
0.1106
0.1106
0.1106
0.1106
0.1106
0.1106
0.1106
0.1106
0.1082
0.1082
0.1082
0.1106
0.1106
0.1106
0.1106
0.1106
0.1106
0.1106
0.1106
0.1106
0.1106
0.1130
0.1130
0.1130
0.1130
0.1130
0.1130
0.1130
0.1130
0.1130
0.1130
0.1130
0.1130
0.1130
0.1130
0.1130
0.1130
0.1106
0.1106
0.1106
0.1106
0.1106
0.1106
0.1106
0.1106
0.1130
0.1130
0.1130
0.1130
0.1130
0.1130
0.1130
0.1106
0.1106
0.1106
0.1106
0.1106
0.1106
0.1106
0.1106
0.1106
0.1130
0.1130
0.1130
0.1130
0.1154
0.1154
0.1178
0.1202
0.1226
0.1250
0.1274
0.1298
0.1322
0.1346
0.1370
0.1370
0.1394
0.1418
0.1418
0.1442
0.1466
0.1466
0.1490
0.1514
0.1538
0.1563
0.1563
0.1587
0.1587
0.1611
0.1611
0.1587
0.1587
0.1587
0.1563
0.1538
0.1538
0.1514
0.1514
0.1490
0.1466
0.1442
0.1418
0.1394
0.1346
0.1298
0.1250
0.1202
0.1178
0.1130
0.1082
0.1058
0.1034
0.1034
0.1010
0.0986
0.0986
0.0986
0.0962
0.0962
0.0962
0.0962
0.0962
0.0962
0.0962
0.0962
0.0962
0.0962
0.0962
0.0962
0.0962
0.0986
0.0986
0.0986
0.0962
0.0962
0.0938
0.0913
0.0889
0.0889
0.0889
0.0938
0.1034
0.1226
0.1538
0.1971
0.2524
0.3221
0.4038
0.4952
0.5938
0.6923
0.7861
0.8702
0.9351
0.9784
0.9928
0.9784
0.9351
0.8678
0.7788
0.6755
0.5649
0.4543
0.3534
0.2644
0.1875
0.1274
0.0841
0.0529
0.0337
0.0192
0.0144
0.0120
0.0144
0.0168
0.0192
0.0240
0.0264
0.0288
0.0288
0.0313
0.0313
0.0337
0.0337
0.0337
0.0337
0.0337
0.0337
0.0361
0.0361
0.0361
0.0385
0.0385
0.0409
0.0409
0.0409
0.0409
0.0409
0.0409
0.0409
0.0409
0.0409
0.0409
0.0433
0.0433
0.0433
0.0457
0.0457
0.0457
0.0457
0.0481
0.0481
0.0481
0.0505
0.0505
0.0505
0.0529
0.0529
0.0529
0.0553
0.0553
0.0553
0.0577
0.0577
0.0577
0.0601
0.0601
0.0601
0.0601
0.0625
0.0625
0.0625
0.0625
0.0625
0.0625
0.0649
0.0649
0.0649
0.0649
0.0673
0.0673
0.0697
0.0697
0.0697
0.0697
0.0697
0.0721
0.0721
0.0721
0.0721
0.0721
0.0745
0.0745
0.0745
0.0769
0.0793
0.0793
0.0817
0.0817
0.0841
0.0865
0.0865
0.0889
0.0889
0.0913
0.0913
0.0938
0.0938
0.0962
0.0986
0.0986
0.1010
0.1034
0.1058
0.1082
0.1106
0.1154
0.1178
0.1226
0.1250
0.1274
0.1322
0.1346
0.1370
0.1394
0.1394
0.1418
0.1442
0.1466
0.1466
0.1490
0.1514
0.1514
0.1538
0.1538
0.1563
0.1563
0.1587
0.1587
0.1611
0.1611
0.1611
0.1611
0.1635
0.1635
0.1611
0.1611
0.1611
0.1611
0.1611
0.1611
0.1611
0.1611
0.1611
0.1611
0.1611
0.1587
0.1587
0.1563
0.1563
0.1538
0.1538
0.1514
0.1490
0.1466
0.1466
0.1442
0.1418
0.1394
0.1370
0.1322
0.1298
0.1274
0.1226
0.1202
0.1178
0.1154
0.1130
0.1106
0.1082
0.1058
0.1034
0.1010
0.0986
0.0962
0.0938
0.0913
0.0913
0.0889
0.0889
0.0865
0.0865
0.0865
0.0865
0.0841
0.0841
0.0841
0.0841
0.0841
0.0841
0.0817
0.0817
0.0817
0.0817
0.0817
0.0817
0.0817
0.0817
0.0817
0.0817
0.0841
0.0841
0.0841
0.0841
0.0841
0.0865
0.0865
0.0865
0.0865
0.0865
0.0865
0.0865
0.0865
0.0889
0.0889
0.0889
0.0889
0.0913
0.0913
0.0913
0.0913
0.0913
0.0913
0.0913
0.0913
0.0938
0.0938
0.0938
0.0938
0.0962
0.0962
0.0962
0.0986
0.0986
0.1010
0.1010
0.1034
0.1034
0.1058
0.1058
0.1058
0.1058
0.1082
0.1082
0.1082
0.1082
0.1106
0.1106
0.1106
0.1106
0.1106
0.1106
0.1130
0.1130
0.1130
0.1130
0.1130
0.1130
0.1130
0.1130
0.1130
0.1130
0.1130
0.1130
0.1106
0.1106
0.1106
0.1106
0.1106
0.1106
0.1106
0.1082
0.1082
0.1082
0.1082
0.1058
0.1058
0.1058
0.1058
0.1058
0.1058
0.1058
0.1058
0.1058
0.1034
0.1034
0.1034
0.1034
0.1034
0.1034
0.1034
0.1034
0.1034
0.1034
0.1034
0.1010
0.1010
0.1010
0.1010
0.1010
0.1010
0.1010
0.1010
0.1010
0.1010
0.1010
0.1010
0.1010
0.1010
0.1010
0.1010
0.1010
0.1010
0.1010
0.1010
0.1010
0.1010
0.1010
0.1010
0.1010
0.1010
0.1010
0.0986
0.0986
0.0986
0.0986
0.0986
0.0986
0.0986
0.0986
0.0986
0.0986
0.0986
0.0986
0.0986
0.0986
0.0986
0.0986
0.0986
0.0986
0.0986
0.0986
0.0986
0.0986
0.0986
0.0986
0.0986
0.1010
0.1010
0.1010
0.1010
0.1010
0.1010
0.1010
0.1010
0.1010
0.0986
0.0986
0.0986
0.0986
0.0986
0.0986
0.0986
0.1010
0.1010
0.1010
0.1010
0.1010
0.1010
0.1010
0.1034
0.1034
0.1034
0.1034
0.1034
0.1034
0.1034
0.1034
0.1034
0.1034
0.1034
0.1034
0.1034
0.1034
0.1034
0.1034
0.1034
0.1034
0.1034
0.1010
0.1034
0.1034
0.1034
0.1034
0.1034
0.1034
0.1034
0.1034
0.1034
0.1034
0.1034
0.1034
0.1034
0.1058
0.1058
0.1058
0.1058
0.1058
0.1058
0.1058
0.1058
0.1058
0.1058
0.1058
0.1058
0.1058
0.1034
0.1058
0.1058
0.1058
0.1058
0.1058
0.1058
0.1058
0.1058
0.1082
0.1082
0.1082
0.1082
0.1082
0.1058
0.1058
0.1058
0.1082
0.1082
0.1082
0.1082
0.1082
0.1106
0.1106
0.1106
0.1106
0.1130
0.1130
0.1154
0.1178
0.1202
0.1202
0.1226
0.1274
0.1298
0.1298
0.1322
0.1346
0.1370
0.1370
0.1394
0.1418
0.1442
0.1466
0.1490
0.1490
0.1514
0.1538
0.1538
0.1563
0.1563
0.1563
0.1563
0.1538
0.1538
0.1514
0.1514
0.1490
0.1490
0.1490
0.1466
0.1466
0.1442
0.1418
0.1394
0.1346
0.1298
0.1250
0.1202
0.1154
0.1106
0.1058
0.1034
0.1010
0.0986
0.0962
0.0938
0.0938
0.0938
0.0938
0.0938
0.0913
0.0938
0.0938
0.0938
0.0938
0.0938
0.0938
0.0938
0.0938
0.0938
0.0938
0.0962
0.0962
0.0962
0.0962
0.0938
0.0938
0.0913
0.0913
0.0889
0.0913
0.0938
0.1010
0.1178
0.1394
0.1755
0.2212
0.2813
0.3534
0.4375
0.5264
0.6202
0.7115
0.7957
0.8678
0.9159
0.9399
0.9351
0.9014
0.8389
0.7572
0.6587
0.5481
0.4399
0.3389
0.2500
0.1731
0.1154
0.0721
0.0433
0.0240
0.0144
0.0096
0.0096
0.0120
0.0168
0.0216
0.0264
0.0288
0.0337
0.0361
0.0385
0.0409
0.0409
0.0433
0.0433
0.0433
0.0433
0.0433
0.0433
0.0457
0.0457
0.0457
0.0457
0.0481
0.0481
0.0481
0.0505
0.0505
0.0505
0.0505
0.0505
0.0505
0.0505
0.0529
0.0529
0.0529
0.0553
0.0553
0.0577
0.0577
0.0601
0.0601
0.0601
0.0601
0.0601
0.0601
0.0601
0.0601
0.0625
0.0625
0.0625
0.0625
0.0625
0.0649
0.0649
0.0649
0.0673
0.0673
0.0673
0.0673
0.0697
0.0697
0.0697
0.0697
0.0721
0.0721
0.0721
0.0721
0.0721
0.0745
0.0745
0.0745
0.0769
0.0769
0.0769
0.0793
0.0793
0.0793
0.0817
0.0817
0.0841
0.0841
0.0841
0.0865
0.0865
0.0889
0.0889
0.0913
0.0913
0.0938
0.0962
0.0962
0.0986
0.1010
0.1010
0.1034
0.1058
0.1082
0.1106
0.1130
0.1154
0.1178
0.1202
0.1226
0.1250
0.1274
0.1298
0.1322
0.1346
0.1370
0.1394
0.1442
0.1466
0.1490
0.1514
0.1563
0.1587
0.1611
0.1635
0.1659
0.1683
0.1707
0.1707
0.1731
0.1755
0.1755
0.1779
0.1779
0.1803
0.1803
0.1803
0.1827
0.1827
0.1827
0.1827
0.1827
0.1827
0.1827
0.1827
0.1827
0.1827
0.1803
0.1803
0.1803
0.1779
0.1779
0.1755
0.1731
0.1707
0.1683
0.1659
0.1635
0.1587
0.1563
0.1538
0.1490
0.1466
0.1442
0.1394
0.1346
0.1322
0.1274
0.1250
0.1202
0.1178
0.1130
0.1106
0.1058
0.1034
0.1010
0.1010
0.0986
0.0962
0.0938
0.0913
0.0913
0.0889
0.0865
0.0841
0.0841
0.0817
0.0817
0.0817
0.0793
0.0793
0.0793
0.0793
0.0793
0.0793
0.0793
0.0793
0.0793
0.0793
0.0793
0.0793
0.0793
0.0793
0.0793
0.0793
0.0793
0.0793
0.0793
0.0793
0.0793
0.0793
0.0793
0.0793
0.0793
0.0793
0.0817
0.0817
0.0817
0.0817
0.0841
0.0841
0.0841
0.0841
0.0865
0.0865
0.0865
0.0889
0.0889
0.0913
0.0913
0.0938
0.0938
0.0938
0.0938
0.0962
0.0962
0.0986
0.0986
0.0986
0.1010
0.1010
0.1034
0.1034
0.1034
0.1034
0.1058
0.1058
0.1058
0.1058
0.1082
0.1082
0.1082
0.1082
0.1082
0.1106
0.1106
0.1106
0.1130
0.1130
0.1130
0.1130
0.1130
0.1130
0.1130
0.1130
0.1130
0.1106
0.1106
0.1106
0.1106
0.1082
0.1082
0.1082
0.1082
0.1082
0.1082
0.1082
0.1058
0.1058
0.1058
0.1058
0.1058
0.1058
0.1058
0.1058
0.1058
0.1058
0.1058
0.1034
0.1034
0.1034
0.1034
0.1034
0.1034
0.1034
0.1010
0.1010
0.1010
0.1010
0.1010
0.1010
0.1010
0.0986
0.0986
0.0986
0.0986
0.0986
0.0986
0.0986
0.0986
0.0986
0.0986
0.0986
0.0986
0.0986
0.0986
0.0986
0.1010
0.1010
0.1010
0.0986
0.0986
0.0986
0.0986
0.0986
0.0986
0.0986
0.0986
0.0986
0.0986
0.0986
0.0986
0.0986
0.0986
0.0986
0.0986
0.0986
0.0986
0.0986
0.0986
0.0986
0.0986
0.0962
0.0962
0.0962
0.0962
0.0962
0.0962
0.0962
0.0962
0.0962
0.0962
0.0986
0.0986
0.0986
0.0986
0.0986
0.0986
0.0986
0.0986
0.0986
0.0962
0.0962
0.0962
0.0962
0.0962
0.0986
0.0986
0.0986
0.0986
0.0986
0.0986
0.0986
0.0986
0.1010
0.1010
0.1010
0.1010
0.1010
0.1010
0.1010
0.1010
0.1010
0.1010
0.1010
0.1010
0.1010
0.1010
0.1034
0.1034
0.1034
0.1034
0.1034
0.1034
0.1034
0.1034
0.1034
0.1034
0.1034
0.1034
0.1034
0.1058
0.1058
0.1058
0.1058
0.1058
0.1058
0.1058
0.1082
0.1082
0.1082
0.1082
0.1082
0.1082
0.1058
0.1058
0.1058
0.1058
0.1058
0.1058
0.1082
0.1082
0.1082
0.1082
0.1106
0.1106
0.1106
0.1106
0.1106
0.1106
0.1106
0.1106
0.1106
0.1106
0.1106
0.1082
0.1082
0.1082
0.1082
0.1082
0.1082
0.1082
0.1082
0.1082
0.1082
0.1082
0.1082
0.1082
0.1082
0.1082
0.1082
0.1082
0.1082
0.1106
0.1106
0.1106
0.1106
0.1106
0.1106
0.1106
0.1106
0.1106
0.1106
0.1106
0.1106
0.1106
0.1106
0.1106
0.1130
0.1154
0.1178
0.1202
0.1226
0.1250
0.1274
0.1298
0.1322
0.1346
0.1370
0.1370
0.1394
0.1394
0.1418
0.1442
0.1466
0.1466
0.1490
0.1514
0.1514
0.1538
0.1563
0.1563
0.1563
0.1563
0.1563
0.1563
0.1563
0.1538
0.1538
0.1538
0.1514
0.1514
0.1490
0.1466
0.1466
0.1442
0.1394
0.1370
0.1322
0.1274
0.1226
0.1178
0.1130
0.1106
0.1058
0.1034
0.1010
0.1010
0.0986
0.0986
0.0986
0.0986
0.0986
0.0986
0.0986
0.0986
0.0986
0.0986
0.0986
0.0962
0.0986
0.0986
0.0986
0.0986
0.0986
0.0986
0.0986
0.0986
0.0986
0.0962
0.0938
0.0913
0.0889
0.0865
0.0865
0.0865
0.0913
0.1034
0.1250
0.1563
0.2019
0.2620
0.3341
0.4183
0.5120
0.6106
0.7091
0.8005
0.8822
0.9423
0.9784
0.9856
0.9639
0.9135
0.8413
0.7452
0.6394
0.5313
0.4231
0.3245
0.2380
0.1683
0.1154
0.0745
0.0481
0.0288
0.0192
0.0144
0.0144
0.0168
0.0192
0.0216
0.0240
0.0264
0.0288
0.0313
0.0337
0.0337
0.0337
0.0337
0.0361
0.0361
0.0361
0.0361
0.0361
0.0361
0.0385
0.0385
0.0409
0.0409
0.0409
0.0409
0.0433
0.0433
0.0433
0.0457
0.0457
0.0457
0.0481
0.0481
0.0505
0.0505
0.0505
0.0505
0.0505
0.0505
0.0505
0.0505
0.0529
0.0529
0.0529
0.0529
0.0553
0.0553
0.0553
0.0553
0.0577
0.0577
0.0577
0.0577
0.0577
0.0577
0.0601
0.0601
0.0601
0.0601
0.0625
0.0625
0.0625
0.0649
0.0649
0.0673
0.0673
0.0673
0.0697
0.0697
0.0697
0.0721
0.0721
0.0745
0.0745
0.0769
0.0769
0.0769
0.0793
0.0793
0.0817
0.0817
0.0841
0.0841
0.0841
0.0865
0.0865
0.0865
0.0889
0.0913
0.0913
0.0938
0.0938
0.0962
0.0986
0.0986
0.1010
0.1010
0.1034
0.1034
0.1058
0.1082
0.1106
0.1106
0.1154
0.1178
0.1202
0.1226
0.1250
0.1274
0.1298
0.1346
0.1370
0.1394
0.1418
0.1442
0.1466
0.1490
0.1514
0.1538
0.1538
0.1563
0.1587
0.1611
0.1611
0.1635
0.1635
0.1659
0.1659
0.1683
0.1683
0.1707
0.1707
0.1707
0.1731
0.1731
0.1731
0.1731
0.1731
0.1731
0.1731
0.1707
0.1707
0.1707
0.1683
0.1683
0.1659
0.1659
0.1635
0.1611
0.1587
0.1563
0.1538
0.1514
0.1490
0.1466
0.1442
0.1418
0.1370
0.1346
0.1322
0.1298
0.1250
0.1226
0.1202
0.1178
0.1130
0.1106
0.1082
0.1058
0.1034
0.1010
0.0986
0.0962
0.0938
0.0938
0.0913
0.0913
0.0889
0.0889
0.0865
0.0865
0.0865
0.0865
0.0865
0.0865
0.0841
0.0841
0.0841
0.0841
0.0841
0.0841
0.0841
0.0841
0.0841
0.0841
0.0841
0.0841
0.0841
0.0841
0.0841
0.0817
0.0817
0.0817
0.0817
0.0817
0.0841
0.0841
0.0841
0.0841
0.0841
0.0865
0.0865
0.0865
0.0865
0.0865
0.0865
0.0865
0.0865
0.0865
0.0865
0.0865
0.0889
0.0889
0.0889
0.0889
0.0889
0.0913
0.0913
0.0938
0.0938
0.0938
0.0938
0.0962
0.0962
0.0962
0.0986
0.0986
0.1010
0.1010
0.1010
0.1010
0.1034
0.1034
0.1034
0.1034
0.1034
0.1058
0.1058
0.1058
0.1082
0.1082
0.1082
0.1082
0.1082
0.1082
0.1082
0.1082
0.1106
0.1106
0.1106
0.1106
0.1106
0.1106
0.1106
0.1106
0.1106
0.1106
0.1106
0.1106
0.1106
0.1082
0.1082
0.1082
0.1082
0.1082
0.1082
0.1082
0.1082
0.1082
0.1082
0.1058
0.1058
0.1058
0.1058
0.1058
0.1058
0.1058
0.1034
0.1034
0.1034
0.1034
0.1034
0.1034
0.1034
0.1034
0.1034
0.1034
0.1034
0.1034
0.1034
0.1010
0.1010
0.1010
0.1010
0.1010
0.1010
0.1010
0.0986
0.0986
0.0986
0.0986
0.0986
0.0986
0.0986
0.0986
0.0986
0.0986
0.0986
0.0986
0.1010
0.1010
0.1010
0.1010
0.1010
0.1010
0.1010
0.1010
0.1010
0.1010
0.1010
0.1010
0.1010
0.1010
0.1010
0.1010
0.1010
0.1010
0.1010
0.1010
0.1010
0.1010
0.1010
0.1010
0.1010
0.1010
0.1010
0.1010
0.1034
0.1034
0.1034
0.1034
0.1034
0.1034
0.1034
0.1034
0.1034
0.1034
0.1034
0.1034
0.1034
0.1034
0.1034
0.1034
0.1034
0.1034
0.1034
0.1034
0.1034
0.1034
0.1034
0.1034
0.1034
0.1034
0.1034
0.1034
0.1034
0.1034
0.1010
0.1034
0.1034
0.1034
0.1034
0.1034
0.1034
0.1034
0.1058
0.1058
0.1058
0.1058
0.1082
0.1082
0.1082
0.1082
0.1082
0.1082
0.1082
0.1082
0.1082
0.1082
0.1082
0.1082
0.1082
0.1082
0.1082
0.1082
0.1082
0.1106
0.1106
0.1106
0.1082
0.1082
0.1082
0.1082
0.1082
0.1082
0.1058
0.1058
0.1058
0.1058
0.1082
0.1082
0.1082
0.1082
0.1082
0.1082
0.1082
0.1082
0.1082
0.1082
0.1082
0.1082
0.1082
0.1082
0.1082
0.1082
0.1082
0.1082
0.1082
0.1082
0.1082
0.1082
0.1082
0.1082
0.1082
0.1106
0.1106
0.1106
0.1106
0.1106
0.1106
0.1106
0.1106
0.1106
0.1106
0.1106
0.1106
0.1106
0.1106
0.1106
0.1106
0.1106
0.1106
0.1106
0.1106
0.1130
0.1130
0.1130
0.1154
0.1178
0.1202
0.1226
0.1250
0.1274
0.1298
0.1322
0.1346
0.1346
0.1370
0.1394
0.1394
0.1418
0.1442
0.1466
0.1466
0.1490
0.1514
0.1538
0.1563
0.1563
0.1587
0.1587
0.1587
0.1587
0.1587
0.1563
0.1563
0.1538
0.1514
0.1514
0.1490
0.1490
0.1466
0.1442
0.1418
0.1394
0.1346
0.1322
0.1274
0.1226
0.1178
0.1130
0.1082
0.1058
0.1034
0.1010
0.0986
0.0962
0.0962
0.0962
0.0962
0.0938
0.0938
0.0938
0.0938
0.0938
0.0962
0.0962
0.0962
0.0962
0.0962
0.0962
0.0962
0.0962
0.0962
0.0962
0.0938
0.0938
0.0913
0.0913
0.0889
0.0865
0.0841
0.0865
0.0889
0.1010
0.1178
0.1466
0.1899
0.2452
0.3149
0.3966
0.4904
0.5889
0.6875
0.7837
0.8678
0.9351
0.9784
0.9928
0.9784
0.9327
0.8654
0.7740
0.6683
0.5577
0.4495
0.3462
0.2572
0.1803
0.1226
0.0793
0.0505
0.0288
0.0168
0.0120
0.0120
0.0120
0.0168
0.0192
0.0216
0.0240
0.0264
0.0288
0.0288
0.0288
0.0288
0.0313
0.0313
0.0313
0.0337
0.0337
0.0337
0.0361
0.0361
0.0361
0.0361
0.0385
0.0385
0.0385
0.0385
0.0385
0.0409
0.0409
0.0409
0.0409
0.0409
0.0409
0.0409
0.0409
0.0433
0.0433
0.0433
0.0433
0.0433
0.0433
0.0433
0.0433
0.0457
0.0457
0.0457
0.0481
0.0481
0.0505
0.0505
0.0505
0.0529
0.0529
0.0529
0.0553
0.0553
0.0553
0.0577
0.0577
0.0577
0.0577
0.0601
0.0601
0.0601
0.0601
0.0625
0.0625
0.0625
0.0625
0.0625
0.0649
0.0649
0.0649
0.0673
0.0673
0.0697
0.0697
0.0697
0.0697
0.0721
0.0721
0.0721
0.0745
0.0745
0.0769
0.0769
0.0793
0.0793
0.0817
0.0841
0.0841
0.0865
0.0865
0.0889
0.0913
0.0938
0.0938
0.0962
0.0986
0.1010
0.1034
0.1034
0.1058
0.1082
0.1106
0.1130
0.1154
0.1178
0.1202
0.1226
0.1250
0.1274
0.1298
0.1322
0.1370
0.1394
0.1418
0.1442
0.1466
0.1466
0.1490
0.1514
0.1514
0.1538
0.1538
0.1563
0.1587
0.1587
0.1611
0.1611
0.1635
0.1635
0.1635
0.1635
0.1635
0.1635
0.1635
0.1635
0.1635
0.1635
0.1635
0.1611
0.1611
0.1611
0.1611
0.1587
0.1587
0.1563
0.1563
0.1538
0.1514
0.1490
0.1466
0.1466
0.1418
0.1394
0.1370
0.1346
0.1298
0.1274
0.1250
0.1202
0.1178
0.1130
0.1106
0.1082
0.1058
0.1034
0.1010
0.0986
0.0962
0.0938
0.0913
0.0913
0.0889
0.0889
0.0865
0.0865
0.0841
0.0841
0.0817
0.0817
0.0817
0.0793
0.0793
0.0793
0.0793
0.0793
0.0793
0.0793
0.0793
0.0793
0.0793
0.0793
0.0793
0.0793
0.0793
0.0793
0.0793
0.0793
0.0793
0.0793
0.0769
0.0769
0.0769
0.0769
0.0769
0.0769
0.0769
0.0769
0.0769
0.0769
0.0793
0.0793
0.0793
0.0793
0.0817
0.0817
0.0817
0.0841
0.0841
0.0865
0.0865
0.0865
0.0865
0.0865
0.0865
0.0865
0.0889
0.0889
0.0889
0.0889
0.0913
0.0913
0.0938
0.0938
0.0962
0.0962
0.0962
0.0986
0.0986
0.0986
0.1010
0.1010
0.1010
0.1034
0.1034
0.1058
0.1058
0.1082
0.1082
0.1082
0.1082
0.1082
0.1082
0.1082
0.1082
0.1082
0.1082
0.1082
0.1106
0.1106
0.1106
0.1106
0.1106
0.1106
0.1106
0.1106
0.1082
0.1082
0.1082
0.1082
0.1082
0.1058
0.1058
0.1058
0.1058
0.1058
0.1058
0.1034
0.1034
0.1034
0.1034
0.1034
0.1034
0.1034
0.1034
0.1010
0.1010
0.1010
0.1010
0.1010
0.0986
0.0986
0.0986
0.0986
0.0986
0.0986
0.0986
0.0986
0.0986
0.0986
0.0986
0.0986
0.0986
0.0986
0.0962
0.0962
0.0962
0.0962
0.0962
0.0962
0.0962
0.0962
0.0962
0.0962
0.0962
0.0962
0.0962
0.0962
0.0962
0.0962
0.0962
0.0962
0.0962
0.0962
0.0962
0.0962
0.0962
0.0962
0.0962
0.0962
0.0962
0.0962
0.0962
0.0962
0.0962
0.0962
0.0962
0.0962
0.0962
0.0962
0.0962
0.0962
0.0962
0.0962
0.0986
0.0986
0.0986
0.1010
0.1010
0.1010
0.1010
0.1010
0.1010
0.1010
0.1010
0.1010
0.1010
0.1010
0.1010
0.1010
0.1010
0.1010
0.1010
0.1010
0.1010
0.1010
0.1010
0.1010
0.1010
0.1010
0.1010
0.1010
0.1010
0.1010
0.1010
0.1010
0.1010
0.1010
0.1010
0.1034
0.1034
0.1034
0.1034
0.1034
0.1034
0.1034
0.1034
0.1058
0.1058
0.1058
0.1058
0.1058
0.1058
0.1058
0.1058
0.1058
0.1058
0.1058
0.1082
0.1082
0.1082
0.1082
0.1082
0.1082
0.1058
0.1058
0.1058
0.1058
0.1058
0.1058
0.1082
0.1082
0.1082
0.1082
0.1082
0.1082
0.1082
0.1082
0.1106
0.1106
0.1130
0.1130
0.1154
0.1178
0.1202
0.1226
0.1250
0.1274
0.1298
0.1322
0.1346
0.1370
0.1370
0.1394
0.1418
0.1442
0.1466
0.1490
0.1514
0.1538
0.1538
0.1563
0.1563
0.1587
0.1587
0.1587
0.1563
0.1563
0.1563
0.1538
0.1538
0.1514
0.1514
0.1490
0.1466
0.1442
0.1418
0.1394
0.1346
0.1298
0.1274
0.1202
0.1154
0.1130
0.1082
0.1034
0.1010
0.0986
0.0986
0.0962
0.0962
0.0938
0.0938
0.0938
0.0938
0.0938
0.0913
0.0913
0.0913
0.0913
0.0913
0.0913
0.0913
0.0938
0.0938
0.0938
0.0938
0.0938
0.0938
0.0938
0.0913
0.0913
0.0889
0.0889
0.0889
0.0913
0.0986
0.1106
0.1298
0.1587
0.1995
0.2524
0.3197
0.3966
0.4808
0.5721
0.6659
0.7524
0.8293
0.8918
0.9303
0.9399
0.9183
0.8702
0.8005
0.7091
0.6058
0.4952
0.3894
0.2933
0.2091
0.1394
0.0889
0.0529
0.0288
0.0144
0.0048
0.0024
0.0048
0.0072
0.0120
0.0168
0.0216
0.0264
0.0288
0.0337
0.0337
0.0361
0.0385
0.0385
0.0385
0.0409
0.0409
0.0409
0.0433
0.0433
0.0433
0.0433
0.0457
0.0457
0.0457
0.0457
0.0457
0.0481
0.0481
0.0481
0.0481
0.0481
0.0505
0.0505
0.0505
0.0529
0.0529
0.0553
0.0553
0.0553
0.0553
0.0553
0.0577
0.0577
0.0577
0.0577
0.0577
0.0601
0.0601
0.0601
0.0625
0.0625
0.0625
0.0625
0.0625
0.0625
0.0625
0.0649
0.0649
0.0649
0.0649
0.0673
0.0673
0.0673
0.0697
0.0697
0.0721
0.0721
0.0721
0.0745
0.0745
0.0769
0.0769
0.0769
0.0793
0.0793
0.0793
0.0817
0.0817
0.0817
0.0841
0.0841
0.0865
0.0865
0.0889
0.0889
0.0913
0.0913
0.0938
0.0962
0.0962
0.0986
0.0986
0.1010
0.1034
0.1058
0.1058
0.1082
0.1106
0.1130
0.1154
0.1178
0.1202
0.1226
0.1274
0.1298
0.1322
0.1370
0.1394
0.1418
0.1442
0.1466
0.1490
0.1514
0.1538
0.1563
0.1611
0.1611
0.1635
0.1659
0.1683
0.1707
0.1707
0.1731
0.1755
0.1755
0.1779
0.1779
0.1803
0.1803
0.1803
0.1827
0.1827
0.1827
0.1827
0.1827
0.1827
0.1827
0.1803
0.1803
0.1803
0.1803
0.1779
0.1779
0.1755
0.1731
0.1731
0.1707
0.1683
0.1659
0.1635
0.1611
0.1563
0.1514
0.1490
0.1442
0.1394
0.1370
0.1322
0.1274
0.1226
0.1202
0.1154
0.1130
0.1106
0.1058
0.1058
0.1034
0.1010
0.0986
0.0962
0.0938
0.0913
0.0889
0.0865
0.0865
0.0841
0.0817
0.0817
0.0793
0.0793
0.0793
0.0769
0.0769
0.0769
0.0769
0.0769
0.0769
0.0769
0.0769
0.0769
0.0769
0.0769
0.0769
0.0769
0.0769
0.0769
0.0769
0.0745
0.0745
0.0745
0.0745
0.0745
0.0745
0.0745
0.0769
0.0769
0.0769
0.0793
0.0793
0.0793
0.0793
0.0793
0.0817
0.0817
0.0817
0.0841
0.0841
0.0841
0.0865
0.0865
0.0865
0.0889
0.0889
0.0889
0.0889
0.0913
0.0913
0.0913
0.0938
0.0938
0.0938
0.0938
0.0962
0.0962
0.0986
0.0986
0.1010
0.1010
0.1034
0.1034
0.1058
0.1058
0.1058
0.1082
0.1082
0.1082
0.1106
0.1106
0.1106
0.1106
0.1106
0.1106
0.1106
0.1106
0.1106
0.1106
0.1106
0.1130
0.1130
0.1130
0.1130
0.1130
0.1106
0.1106
0.1106
0.1106
0.1106
0.1106
0.1106
0.1106
0.1082
0.1082
0.1082
0.1058
0.1058
0.1058
0.1058
0.1058
0.1058
0.1058
0.1034
0.1034
0.1034
0.1034
0.1034
0.1034
0.1034
0.1034
0.1034
0.1034
0.1010
0.1010
0.1010
0.1010
0.1010
0.1010
0.1034
0.1034
0.1034
0.1034
0.1034
0.1034
0.1010
0.1010
0.1010
0.1010
0.1010
0.1010
0.1010
0.1010
0.1010
0.1010
0.1010
0.1010
0.1010
0.1010
0.1010
0.1010
0.1010
0.1010
0.1010
0.1010
0.1010
0.1010
0.1010
0.1010
0.1010
0.1010
0.1010
0.1010
0.1010
0.1010
0.1010
0.1010
0.1010
0.1034
0.1034
0.1034
0.1034
0.1034
0.1034
0.1034
0.1034
0.1034
0.1034
0.1034
0.1034
0.1010
0.1010
0.1010
0.1010
0.1010
0.1010
0.1010
0.1010
0.1010
0.1010
0.1010
0.1010
0.1034
0.1034
0.1034
0.1034
0.1058
0.1058
0.1058
0.1058
0.1058
0.1058
0.1034
0.1034
0.1034
0.1034
0.1034
0.1034
0.1034
0.1034
0.1034
0.1058
0.1058
0.1058
0.1058
0.1058
0.1058
0.1058
0.1058
0.1058
0.1058
0.1082
0.1082
0.1058
0.1058
0.1058
0.1058
0.1058
0.1058
0.1058
0.1058
0.1082
0.1082
0.1082
0.1082
0.1082
0.1082
0.1082
0.1082
0.1106
0.1106
0.1106
0.1106
0.1130
0.1154
0.1178
0.1202
0.1226
0.1274
0.1298
0.1322
0.1322
0.1346
0.1370
0.1370
0.1394
0.1418
0.1442
0.1466
0.1490
0.1514
0.1514
0.1538
0.1563
0.1563
0.1587
0.1587
0.1587
0.1587
0.1587
0.1587
0.1563
0.1563
0.1538
0.1538
0.1538
0.1538
0.1538
0.1514
0.1514
0.1490
0.1466
0.1418
0.1370
0.1322
0.1274
0.1226
0.1178
0.1130
0.1106
0.1058
0.1034
0.1010
0.1010
0.0986
0.0986
0.0986
0.0986
0.0986
0.0986
0.0986
0.0986
0.0986
0.0986
0.0986
0.0986
0.0962
0.0962
0.0986
0.0986
0.0986
0.0986
0.0986
0.0986
0.0962
0.0962
0.0938
0.0938
0.0938
0.0938
0.0986
0.1058
0.1226
0.1490
0.1827
0.2308
0.2909
0.3630
0.4447
0.5337
0.6274
0.7188
0.8053
0.8750
0.9255
0.9519
0.9495
0.9183
0.8582
0.7788
0.6827
0.5769
0.4688
0.3654
0.2764
0.1971
0.1370
0.0913
0.0577
0.0385
0.0240
0.0192
0.0168
0.0192
0.0240
0.0264
0.0313
0.0337
0.0385
0.0409
0.0409
0.0433
0.0433
0.0433
0.0457
0.0457
0.0457
0.0457
0.0457
0.0481
0.0481
0.0481
0.0505
0.0505
0.0505
0.0529
0.0529
0.0529
0.0529
0.0529
0.0529
0.0529
0.0553
0.0553
0.0553
0.0553
0.0577
0.0577
0.0577
0.0577
0.0601
0.0601
0.0601
0.0601
0.0601
0.0601
0.0625
0.0625
0.0625
0.0625
0.0649
0.0649
0.0649
0.0673
0.0673
0.0697
0.0697
0.0697
0.0697
0.0721
0.0721
0.0721
0.0721
0.0745
0.0745
0.0745
0.0769
0.0769
0.0769
0.0769
0.0769
0.0793
0.0793
0.0793
0.0817
0.0817
0.0817
0.0841
0.0841
0.0841
0.0841
0.0865
0.0865
0.0865
0.0889
0.0889
0.0913
0.0913
0.0938
0.0938
0.0962
0.0962
0.0986
0.1010
0.1010
0.1034
0.1058
0.1082
0.1082
0.1106
0.1130
0.1154
0.1202
0.1226
0.1250
0.1274
0.1322
0.1346
0.1370
0.1394
0.1442
0.1466
0.1490
0.1514
0.1538
0.1563
0.1611
0.1635
0.1659
0.1683
0.1707
0.1731
0.1755
0.1779
0.1803
0.1803
0.1827
0.1851
0.1851
0.1875
0.1875
0.1875
0.1899
0.1899
0.1899
0.1899
0.1899
0.1923
0.1923
0.1899
0.1899
0.1899
0.1875
0.1875
0.1851
0.1827
0.1803
0.1779
0.1755
0.1731
0.1707
0.1659
0.1635
0.1611
0.1563
0.1538
0.1490
0.1466
0.1442
0.1394
0.1346
0.1322
0.1274
0.1226
0.1202
0.1154
0.1130
0.1082
0.1058
0.1034
0.1010
0.0986
0.0962
0.0938
0.0913
0.0913
0.0889
0.0865
0.0865
0.0841
0.0841
0.0841
0.0817
0.0817
0.0817
0.0817
0.0793
0.0793
0.0793
0.0793
0.0793
0.0769
0.0769
0.0769
0.0769
0.0769
0.0769
0.0769
0.0769
0.0769
0.0769
0.0793
0.0793
0.0793
0.0793
0.0793
0.0793
0.0793
0.0793
0.0793
0.0793
0.0793
0.0817
0.0817
0.0817
0.0817
0.0817
0.0841
0.0841
0.0841
0.0841
0.0841
0.0841
0.0865
0.0865
0.0865
0.0865
0.0889
0.0889
0.0889
0.0889
0.0913
0.0913
0.0913
0.0938
0.0938
0.0938
0.0962
0.0962
0.0986
0.1010
0.1010
0.1034
0.1034
0.1034
0.1058
0.1058
0.1082
0.1082
0.1082
0.1106
0.1106
0.1106
0.1106
0.1106
0.1106
0.1106
0.1106
0.1106
0.1106
0.1106
0.1106
0.1106
0.1106
0.1106
0.1106
0.1106
0.1106
0.1106
0.1082
0.1082
0.1082
0.1082
0.1082
0.1058
0.1058
0.1058
0.1058
0.1034
0.1034
0.1034
0.1034
0.1034
0.1034
0.1034
0.1034
0.1034
0.1034
0.1034
0.1034
0.1034
0.1034
0.1034
0.1034
0.1034
0.1034
0.1034
0.1034
0.1034
0.1010
0.1010
0.1010
0.1010
0.1010
0.1010
0.1010
0.1010
0.1010
0.1010
0.1010
0.1010
0.1010
0.1010
0.1010
0.1010
0.1010
0.1010
0.1010
0.1010
0.1010
0.1010
0.1010
0.1010
0.1010
0.1010
0.1010
0.1010
0.1010
0.1010
0.1010
0.1010
0.1010
0.1010
0.1010
0.1010
0.1010
0.1010
0.1010
0.1010
0.1010
0.1010
0.1010
0.1010
0.1010
0.1010
0.1034
0.1034
0.1034
0.1034
0.1034
0.1034
0.1034
0.1034
0.1034
0.1034
0.1034
0.1034
0.1058
0.1058
0.1058
0.1058
0.1058
0.1058
0.1058
0.1058
0.1058
0.1058
0.1058
0.1058
0.1058
0.1058
0.1058
0.1058
0.1058
0.1058
0.1058
0.1058
0.1058
0.1058
0.1058
0.1058
0.1058
0.1058
0.1058
0.1058
0.1058
0.1058
0.1058
0.1058
0.1082
0.1082
0.1082
0.1082
0.1082
0.1082
0.1082
0.1082
0.1082
0.1082
0.1082
0.1106
0.1106
0.1106
0.1106
0.1106
0.1082
0.1082
0.1082
0.1082
0.1082
0.1082
0.1082
0.1082
0.1082
0.1082
0.1082
0.1082
0.1082
0.1106
0.1106
0.1106
0.1106
0.1106
0.1106
0.1106
0.1106
0.1106
0.1082
0.1082
0.1082
0.1082
0.1106
0.1106
0.1106
0.1106
0.1106
0.1106
0.1106
0.1106
0.1106
0.1106
0.1106
0.1106
0.1106
0.1106
0.1082
0.1082
0.1082
0.1082
0.1082
0.1082
0.1082
0.1106
0.1106
0.1106
0.1106
0.1106
0.1106
0.1130
0.1130
0.1130
0.1130
0.1130
0.1130
0.1130
0.1130
0.1130
0.1130
0.1130
0.1130
0.1130
0.1130
0.1130
0.1130
0.1106
0.1106
0.1106
0.1106
0.1106
0.1082
0.1082
0.1082
0.1106
0.1106
0.1106
0.1106
0.1106
0.1130
0.1130
0.1130
0.1130
0.1130
0.1130
0.1130
0.1130
0.1130
0.1130
0.1130
0.1130
0.1130
0.1154
0.1154
0.1154
0.1154
0.1154
0.1154
0.1154
0.1154
0.1154
0.1154
0.1154
0.1154
0.1154
0.1154
0.1154
0.1130
0.1130
0.1154
0.1154
0.1130
0.1130
0.1130
0.1130
0.1130
0.1130
0.1130
0.1130
0.1130
0.1130
0.1130
0.1130
0.1130
0.1130
0.1130
0.1154
0.1154
0.1178
0.1202
0.1202
0.1226
0.1274
0.1298
0.1322
0.1322
0.1346
0.1370
0.1370
0.1394
0.1418
0.1418
0.1442
0.1466
0.1490
0.1514
0.1538
0.1563
0.1587
0.1611
0.1611
0.1635
0.1635
0.1611
0.1611
0.1611
0.1587
0.1587
0.1563
0.1538
0.1538
0.1514
0.1490
0.1466
0.1442
0.1418
0.1370
0.1346
0.1298
0.1250
0.1202
0.1154
0.1106
0.1082
0.1034
0.1034
0.1010
0.0986
0.0986
0.0986
0.0986
0.0986
0.0986
0.0986
0.0986
0.0986
0.0986
0.0986
0.0986
0.0986
0.0986
0.0986
0.0986
0.0986
0.0986
0.0986
0.0986
0.0962
0.0938
0.0938
0.0913
0.0889
0.0889
0.0938
0.1034
0.1226
0.1538
0.1971
0.2524
0.3245
0.4063
0.4976
0.5962
0.6947
0.7885
0.8726
0.9351
0.9760
0.9880
0.9712
0.9279
0.8582
0.7668
0.6635
0.5553
0.4471
0.3462
0.2572
0.1827
0.1250
0.0817
0.0505
0.0313
0.0192
0.0144
0.0144
0.0168
0.0192
0.0216
0.0240
0.0264
0.0288
0.0313
0.0337
0.0337
0.0337
0.0337
0.0337
0.0361
0.0361
0.0361
0.0361
0.0361
0.0361
0.0385
0.0385
0.0385
0.0385
0.0409
0.0409
0.0409
0.0409
0.0433
0.0433
0.0433
0.0433
0.0433
0.0433
0.0433
0.0457
0.0457
0.0481
0.0481
0.0481
0.0481
0.0505
0.0505
0.0505
0.0505
0.0505
0.0529
0.0529
0.0529
0.0553
0.0553
0.0577
0.0577
0.0577
0.0577
0.0601
0.0601
0.0601
0.0601
0.0601
0.0601
0.0625
0.0625
0.0625
0.0625
0.0649
0.0649
0.0649
0.0673
0.0673
0.0697
0.0697
0.0697
0.0697
0.0721
0.0721
0.0721
0.0721
0.0745
0.0745
0.0769
0.0769
0.0793
0.0793
0.0817
0.0817
0.0841
0.0841
0.0841
0.0865
0.0889
0.0889
0.0913
0.0938
0.0962
0.0986
0.0986
0.1010
0.1034
0.1034
0.1058
0.1058
0.1082
0.1106
0.1130
0.1154
0.1178
0.1202
0.1226
0.1274
0.1298
0.1322
0.1346
0.1370
0.1394
0.1418
0.1442
0.1466
0.1490
0.1514
0.1538
0.1563
0.1563
0.1587
0.1587
0.1611
0.1611
0.1635
0.1635
0.1635
0.1635
0.1659
0.1659
0.1659
0.1659
0.1659
0.1659
0.1659
0.1659
0.1659
0.1659
0.1659
0.1659
0.1635
0.1635
0.1635
0.1611
0.1611
0.1587
0.1587
0.1563
0.1563
0.1538
0.1514
0.1490
0.1466
0.1442
0.1418
0.1370
0.1346
0.1322
0.1274
0.1250
0.1226
0.1178
0.1154
0.1130
0.1106
0.1082
0.1082
0.1058
0.1034
0.1010
0.0986
0.0986
0.0962
0.0938
0.0938
0.0913
0.0913
0.0889
0.0889
0.0889
0.0889
0.0865
0.0865
0.0865
0.0865
0.0865
0.0865
0.0865
0.0865
0.0865
0.0865
0.0865
0.0865
0.0841
0.0841
0.0841
0.0841
0.0841
0.0841
0.0841
0.0841
0.0841
0.0841
0.0841
0.0841
0.0841
0.0841
0.0841
0.0841
0.0865
0.0865
0.0865
0.0865
0.0889
0.0889
0.0889
0.0889
0.0889
0.0889
0.0913
0.0913
0.0913
0.0913
0.0913
0.0938
0.0938
0.0938
0.0962
0.0962
0.0962
0.0962
0.0962
0.0986
0.0986
0.0986
0.0986
0.0986
0.1010
0.1010
0.1034
0.1034
0.1058
0.1058
0.1082
0.1082
0.1106
0.1106
0.1106
0.1130
0.1130
0.1130
0.1130
0.1130
0.1130
0.1130
0.1130
0.1130
0.1106
0.1106
0.1106
0.1106
0.1106
0.1106
0.1106
0.1106
0.1106
0.1106
0.1082
0.1082
0.1082
0.1082
0.1058
0.1058
0.1058
0.1034
0.1034
0.1034
0.1034
0.1010
0.1010
0.1010
0.1010
0.1010
0.1010
0.1010
0.1010
0.1010
0.1010
0.1010
0.1010
0.1010
0.0986
0.0986
0.0986
0.0986
0.0986
0.0986
0.0986
0.0986
0.0986
0.0986
0.0986
0.0986
0.0986
0.0986
0.0986
0.0986
0.0986
0.0962
0.0962
0.0962
0.0962
0.0962
0.0962
0.0962
0.0986
0.0986
0.0986
0.0986
0.1010
0.1010
0.1010
0.0986
0.0986
0.0986
0.0962
0.0962
0.0962
0.0962
0.0962
0.0962
0.0962
0.0962
0.0962
0.0962
0.0962
0.0962
0.0986
0.0986
0.0986
0.0986
0.0986
0.0986
0.0986
0.0986
0.0986
0.0986
0.0986
0.0986
0.0986
0.0986
0.0986
0.0986
0.0986
0.0986
0.0986
0.0986
0.0986
0.0986
0.0986
0.0986
0.0986
0.0986
0.0986
0.0986
0.0986
0.1010
0.1010
0.1010
0.1010
0.1010
0.1010
0.1010
0.1010
0.1010
0.1010
0.1010
0.1010
0.1010
0.1010
0.1010
0.1010
0.1010
0.1010
0.1010
0.1034
0.1034
0.1034
0.1010
0.1010
0.1010
0.1010
0.1010
0.1010
0.1010
0.1010
0.1010
0.1010
0.1010
0.1010
0.1010
0.1010
0.1010
0.1010
0.1010
0.1034
0.1034
0.1034
0.1034
0.1034
0.1058
0.1058
0.1058
0.1058
0.1058
0.1058
0.1058
0.1058
0.1082
0.1058
0.1058
0.1058
0.1058
0.1058
0.1058
0.1058
0.1058
0.1058
0.1058
0.1058
0.1082
0.1082
0.1082
0.1082
0.1082
0.1082
0.1082
0.1082
0.1082
0.1106
0.1106
0.1106
0.1106
0.1106
0.1106
0.1106
0.1106
0.1106
0.1106
0.1106
0.1106
0.1106
0.1082
0.1082
0.1082
0.1106
0.1106
0.1106
0.1106
0.1106
0.1130
0.1130
0.1130
0.1130
0.1130
0.1130
0.1130
0.1130
0.1154
0.1154
0.1178
0.1202
0.1226
0.1250
0.1274
0.1298
0.1322
0.1370
0.1370
0.1394
0.1418
0.1442
0.1466
0.1490
0.1514
0.1538
0.1538
0.1563
0.1587
0.1587
0.1587
0.1611
0.1611
0.1611
0.1587
0.1587
0.1563
0.1563
0.1538
0.1538
0.1538
0.1514
0.1490
0.1466
0.1442
0.1418
0.1370
0.1346
0.1298
0.1250
0.1202
0.1154
0.1106
0.1058
0.1034
0.1010
0.0986
0.0986
0.0962
0.0962
0.0962
0.0962
0.0962
0.0962
0.0962
0.0962
0.0962
0.0962
0.0962
0.0962
0.0962
0.0962
0.0962
0.0962
0.0962
0.0962
0.0962
0.0962
0.0938
0.0913
0.0913
0.0913
0.0938
0.1010
0.1154
0.1370
0.1707
0.2163
0.2716
0.3413
0.4207
0.5072
0.5986
0.6875
0.7716
0.8438
0.8966
0.9255
0.9279
0.9014
0.8486
0.7740
0.6803
0.5769
0.4688
0.3678
0.2740
0.1947
0.1298
0.0841
0.0505
0.0288
0.0144
0.0072
0.0072
0.0096
0.0120
0.0168
0.0216
0.0264
0.0288
0.0337
0.0361
0.0361
0.0385
0.0409
0.0409
0.0433
0.0433
0.0433
0.0457
0.0457
0.0457
0.0457
0.0481
0.0481
0.0481
0.0481
0.0505
0.0505
0.0505
0.0505
0.0529
0.0529
0.0529
0.0553
0.0553
0.0553
0.0577
0.0577
0.0577
0.0577
0.0577
0.0577
0.0601
0.0601
0.0601
0.0601
0.0625
0.0625
0.0625
0.0649
0.0649
0.0673
0.0673
0.0673
0.0673
0.0697
0.0697
0.0697
0.0697
0.0721
0.0721
0.0721
0.0721
0.0721
0.0745
0.0745
0.0745
0.0745
0.0769
0.0769
0.0769
0.0769
0.0793
0.0793
0.0793
0.0793
0.0817
0.0817
0.0841
0.0841
0.0841
0.0865
0.0865
0.0889
0.0913
0.0913
0.0938
0.0962
0.0962
0.0986
0.1010
0.1010
0.1034
0.1058
0.1058
0.1082
0.1106
0.1106
0.1130
0.1154
0.1178
0.1202
0.1226
0.1250
0.1274
0.1298
0.1322
0.1346
0.1370
0.1394
0.1418
0.1442
0.1466
0.1466
0.1490
0.1514
0.1538
0.1563
0.1587
0.1611
0.1635
0.1635
0.1659
0.1683
0.1683
0.1707
0.1707
0.1731
0.1731
0.1755
0.1755
0.1779
0.1779
0.1779
0.1779
0.1779
0.1779
0.1779
0.1779
0.1779
0.1755
0.1755
0.1755
0.1731
0.1731
0.1707
0.1683
0.1683
0.1659
0.1635
0.1611
0.1587
0.1587
0.1563
0.1538
0.1514
0.1466
0.1442
0.1418
0.1370
0.1346
0.1298
0.1274
0.1226
0.1202
0.1178
0.1130
0.1106
0.1082
0.1034
0.1010
0.0986
0.0962
0.0938
0.0913
0.0889
0.0889
0.0865
0.0865
0.0841
0.0841
0.0817
0.0817
0.0817
0.0793
0.0793
0.0793
0.0793
0.0793
0.0793
0.0793
0.0793
0.0793
0.0769
0.0769
0.0769
0.0769
0.0769
0.0769
0.0769
0.0769
0.0769
0.0769
0.0769
0.0793
0.0793
0.0793
0.0793
0.0793
0.0793
0.0817
0.0817
0.0817
0.0841
0.0841
0.0841
0.0865
0.0865
0.0865
0.0889
0.0889
0.0889
0.0913
0.0913
0.0938
0.0938
0.0938
0.0938
0.0962
0.0962
0.0962
0.0986
0.0986
0.0986
0.1010
0.1010
0.1034
0.1034
0.1034
0.1058
0.1058
0.1058
0.1058
0.1082
0.1082
0.1082
0.1106
0.1106
0.1106
0.1106
0.1130
0.1130
0.1130
0.1130
0.1130
0.1130
0.1130
0.1130
0.1130
0.1130
0.1130
0.1106
0.1106
0.1106
0.1106
0.1082
0.1082
0.1082
0.1082
0.1082
0.1082
0.1082
0.1058
0.1058
0.1058
0.1058
0.1058
0.1058
0.1034
0.1034
0.1034
0.1034
0.1034
0.1034
0.1034
0.1034
0.1034
0.1034
0.1034
0.1034
0.1010
0.1010
0.1010
0.1010
0.1010
0.1010
0.0986
0.0986
0.0986
0.0986
0.0986
0.0986
0.0986
0.0986
0.0986
0.1010
0.1010
0.1010
0.1010
0.0986
0.0986
0.0986
0.0986
0.0986
0.0986
0.0962
0.0962
0.0962
0.0986
0.0986
0.0986
0.0986
0.0986
0.0986
0.0986
0.0986
0.0986
0.0986
0.0986
0.0986
0.0986
0.0986
0.0986
0.0962
0.0962
0.0962
0.0962
0.0962
0.0962
0.0962
0.0962
0.0962
0.0962
0.0962
0.0962
0.0938
0.0938
0.0938
0.0938
0.0938
0.0962
0.0962
0.0962
0.0962
0.0986
0.0986
0.0986
0.0986
0.0986
0.1010
0.1010
0.1010
0.1010
0.1010
0.1010
0.1010
0.1010
0.1010
0.1010
0.1010
0.1010
0.1010
0.1010
0.1010
0.1010
0.1010
0.1010
0.1010
0.1034
0.1034
0.1034
0.1058
0.1058
0.1058
0.1058
0.1058
0.1058
0.1034
0.1034
0.1034
0.1034
0.1034
0.1034
0.1034
0.1034
0.1034
0.1034
0.1034
0.1034
0.1058
0.1058
0.1058
0.1058
0.1058
0.1058
0.1058
0.1058
0.1058
0.1082
0.1082
0.1082
0.1082
0.1082
0.1082
0.1082
0.1082
0.1082
0.1082
0.1082
0.1082
0.1082
0.1082
0.1106
0.1106
0.1106
0.1130
0.1130
0.1154
0.1154
0.1178
0.1202
0.1226
0.1274
0.1274
0.1298
0.1322
0.1346
0.1346
0.1370
0.1394
0.1394
0.1418
0.1442
0.1466
0.1490
0.1490
0.1514
0.1538
0.1563
0.1563
0.1563
0.1587
0.1587
0.1587
0.1563
0.1563
0.1563
0.1538
0.1538
0.1538
0.1514
0.1514
0.1490
0.1466
0.1442
0.1418
0.1370
0.1322
0.1274
0.1226
0.1178
0.1130
0.1082
0.1058
0.1034
0.1010
0.1010
0.0986
0.0986
0.0986
0.0962
0.0962
0.0962
0.0962
0.0962
0.0962
0.0962
0.0962
0.0962
0.0962
0.0962
0.0962
0.0962
0.0986
0.0986
0.0962
0.0962
0.0962
0.0938
0.0913
0.0913
0.0889
0.0889
0.0913
0.0986
0.1130
0.1346
0.1707
0.2163
0.2764
0.3510
0.4351
0.5288
0.6274
0.7236
0.8125
0.8894
0.9447
0.9760
0.9784
0.9519
0.8966
0.8173
0.7236
0.6154
0.5072
0.4014
0.3053
0.2236
0.1563
0.1058
0.0697
0.0457
0.0288
0.0216
0.0168
0.0192
0.0216
0.0240
0.0264
0.0288
0.0313
0.0337
0.0361
0.0361
0.0361
0.0361
0.0385
0.0385
0.0385
0.0385
0.0385
0.0409
0.0409
0.0409
0.0409
0.0409
0.0433
0.0433
0.0433
0.0457
0.0457
0.0457
0.0457
0.0481
0.0481
0.0481
0.0481
0.0481
0.0505
0.0505
0.0505
0.0529
0.0529
0.0529
0.0553
0.0553
0.0553
0.0577
0.0577
0.0577
0.0577
0.0577
0.0601
0.0601
0.0601
0.0601
0.0601
0.0625
0.0625
0.0649
0.0649
0.0649
0.0673
0.0673
0.0673
0.0673
0.0673
0.0673
0.0673
0.0697
0.0697
0.0697
0.0721
0.0721
0.0745
0.0745
0.0769
0.0769
0.0793
0.0793
0.0793
0.0817
0.0817
0.0817
0.0817
0.0841
0.0841
0.0865
0.0865
0.0889
0.0889
0.0913
0.0938
0.0938
0.0962
0.0986
0.1010
0.1010
0.1034
0.1058
0.1082
0.1082
0.1106
0.1130
0.1154
0.1154
0.1178
0.1202
0.1226
0.1274
0.1298
0.1322
0.1370
0.1394
0.1418
0.1442
0.1466
0.1490
0.1514
0.1538
0.1563
0.1587
0.1611
0.1635
0.1659
0.1683
0.1683
0.1707
0.1731
0.1731
0.1755
0.1755
0.1779
0.1779
0.1803
0.1803
0.1803
0.1803
0.1803
0.1803
0.1803
0.1803
0.1803
0.1803
0.1803
0.1779
0.1779
0.1779
0.1755
0.1731
0.1707
0.1683
0.1659
0.1635
0.1611
0.1587
0.1563
0.1538
0.1490
0.1466
0.1442
0.1418
0.1370
0.1346
0.1298
0.1274
0.1250
0.1202
0.1178
0.1154
0.1106
0.1082
0.1058
0.1034
0.1010
0.0986
0.0962
0.0962
0.0938
0.0938
0.0913
0.0913
0.0913
0.0913
0.0889
0.0889
0.0889
0.0889
0.0889
0.0865
0.0865
0.0865
0.0865
0.0865
0.0865
0.0865
0.0865
0.0865
0.0865
0.0865
0.0865
0.0865
0.0865
0.0841
0.0841
0.0841
0.0841
0.0841
0.0841
0.0841
0.0841
0.0841
0.0841
0.0841
0.0841
0.0841
0.0865
0.0865
0.0865
0.0889
0.0889
0.0889
0.0889
0.0889
0.0889
0.0889
0.0889
0.0889
0.0889
0.0913
0.0913
0.0913
0.0938
0.0938
0.0962
0.0962
0.0986
0.0986
0.1010
0.1010
0.1034
0.1034
0.1034
0.1058
0.1058
0.1058
0.1058
0.1082
0.1082
0.1082
0.1082
0.1106
0.1106
0.1106
0.1106
0.1130
0.1130
0.1130
0.1130
0.1130
0.1130
0.1130
0.1130
0.1130
0.1130
0.1130
0.1130
0.1130
0.1130
0.1130
0.1130
0.1130
0.1130
0.1130
0.1130
0.1130
0.1130
0.1106
0.1106
0.1106
0.1106
0.1106
0.1082
0.1082
0.1082
0.1082
0.1082
0.1082
0.1082
0.1058
0.1058
0.1058
0.1058
0.1058
0.1058
0.1058
0.1058
0.1058
0.1058
0.1058
0.1058
0.1058
0.1058
0.1058
0.1058
0.1058
0.1058
0.1058
0.1058
0.1058
0.1058
0.1058
0.1058
0.1058
0.1058
0.1058
0.1058
0.1058
0.1058
0.1058
0.1058
0.1058
0.1058
0.1058
0.1058
0.1058
0.1034
0.1034
0.1034
0.1034
0.1058
0.1058
0.1058
0.1058
0.1058
0.1058
0.1058
0.1058
0.1058
0.1058
0.1058
0.1058
0.1034
0.1034
0.1034
0.1034
0.1058
0.1058
0.1058
0.1058
0.1058
0.1058
0.1058
0.1058
0.1058
0.1058
0.1058
0.1058
0.1058
0.1058
0.1058
0.1058
0.1058
0.1058
0.1058
0.1058
0.1058
0.1058
0.1058
0.1058
0.1058
0.1058
0.1082
0.1082
0.1082
0.1082
0.1082
0.1082
0.1082
0.1082
0.1082
0.1082
0.1082
0.1082
0.1082
0.1082
0.1082
0.1082
0.1082
0.1082
0.1082
0.1082
0.1082
0.1082
0.1082
0.1106
0.1106
0.1106
0.1106
0.1106
0.1106
0.1106
0.1106
0.1106
0.1106
0.1106
0.1106
0.1106
0.1106
0.1106
0.1106
0.1106
0.1106
0.1106
0.1106
0.1106
0.1106
0.1106
0.1106
0.1106
0.1106
0.1106
0.1106
0.1106
0.1106
0.1106
0.1106
0.1106
0.1106
0.1106
0.1106
0.1106
0.1106
0.1106
0.1106
0.1106
0.1106
0.1106
0.1106
0.1106
0.1106
0.1106
0.1106
0.1106
0.1106
0.1106
0.1106
0.1106
0.1106
0.1106
0.1082
0.1082
0.1082
0.1106
0.1106
0.1106
0.1106
0.1130
0.1130
0.1130
0.1130
0.1130
0.1130
0.1130
0.1130
0.1130
0.1130
0.1130
0.1130
0.1130
0.1130
0.1130
0.1130
0.1130
0.1130
0.1130
0.1130
0.1130
0.1130
0.1130
0.1130
0.1130
0.1130
0.1130
0.1130
0.1130
0.1130
0.1130
0.1130
0.1130
0.1130
0.1130
0.1130
0.1130
0.1130
0.1130
0.1130
0.1130
0.1130
0.1130
0.1130
0.1106
0.1106
0.1106
0.1106
0.1106
0.1106
0.1106
0.1130
0.1130
0.1130
0.1154
0.1154
0.1154
0.1154
0.1154
0.1154
0.1178
0.1178
0.1202
0.1226
0.1226
0.1274
0.1274
0.1298
0.1322
0.1346
0.1370
0.1394
0.1394
0.1418
0.1442
0.1466
0.1490
0.1514
0.1538
0.1563
0.1563
0.1587
0.1611
0.1611
0.1587
0.1587
0.1587
0.1563
0.1563
0.1538
0.1538
0.1538
0.1514
0.1490
0.1466
0.1466
0.1418
0.1394
0.1346
0.1322
0.1274
0.1226
0.1178
0.1130
0.1082
0.1058
0.1034
0.1010
0.0986
0.0962
0.0962
0.0962
0.0938
0.0938
0.0938
0.0938
0.0938
0.0938
0.0938
0.0938
0.0938
0.0938
0.0938
0.0938
0.0938
0.0938
0.0938
0.0938
0.0938
0.0913
0.0913
0.0889
0.0865
0.0865
0.0865
0.0913
0.1034
0.1226
0.1538
0.1971
0.2548
0.3245
0.4063
0.4976
0.5962
0.6947
0.7861
0.8702
0.9327
0.9736
0.9880
0.9712
0.9255
0.8582
0.7692
0.6659
0.5553
0.4447
0.3462
0.2548
0.1803
0.1202
0.0769
0.0481
0.0288
0.0168
0.0120
0.0096
0.0120
0.0144
0.0168
0.0192
0.0216
0.0240
0.0264
0.0264
0.0288
0.0288
0.0288
0.0288
0.0313
0.0313
0.0313
0.0313
0.0337
0.0337
0.0337
0.0361
0.0361
0.0385
0.0385
0.0385
0.0409
0.0409
0.0409
0.0409
0.0409
0.0409
0.0433
0.0433
0.0433
0.0457
0.0457
0.0481
0.0481
0.0481
0.0481
0.0481
0.0481
0.0481
0.0481
0.0505
0.0505
0.0505
0.0529
0.0529
0.0529
0.0553
0.0553
0.0553
0.0553
0.0553
0.0553
0.0577
0.0577
0.0577
0.0577
0.0601
0.0601
0.0601
0.0625
0.0625
0.0625
0.0625
0.0649
0.0649
0.0649
0.0649
0.0649
0.0673
0.0673
0.0673
0.0697
0.0697
0.0697
0.0721
0.0721
0.0721
0.0745
0.0745
0.0745
0.0769
0.0769
0.0793
0.0793
0.0817
0.0841
0.0841
0.0865
0.0865
0.0889
0.0913
0.0938
0.0938
0.0962
0.0986
0.1010
0.1034
0.1034
0.1058
0.1082
0.1106
0.1130
0.1154
0.1202
0.1226
0.1250
0.1274
0.1298
0.1322
0.1346
0.1370
0.1394
0.1418
0.1442
0.1442
0.1466
0.1490
0.1490
0.1514
0.1538
0.1538
0.1563
0.1563
0.1587
0.1587
0.1611
0.1611
0.1611
0.1635
0.1635
0.1635
0.1635
0.1611
0.1611
0.1611
0.1611
0.1587
0.1587
0.1587
0.1563
0.1563
0.1563
0.1538
0.1538
0.1514
0.1514
0.1490
0.1466
0.1466
0.1442
0.1418
0.1394
0.1370
0.1322
0.1298
0.1274
0.1226
0.1202
0.1154
0.1130
0.1082
0.1058
0.1034
0.1010
0.0986
0.0962
0.0938
0.0913
0.0913
0.0889
0.0889
0.0889
0.0865
0.0865
0.0865
0.0841
0.0841
0.0817
0.0817
0.0817
0.0817
0.0817
0.0817
0.0817
0.0817
0.0817
0.0817
0.0817
0.0817
0.0817
0.0817
0.0817
0.0817
0.0817
0.0817
0.0817
0.0817
0.0817
0.0817
0.0841
0.0841
0.0841
0.0841
0.0865
0.0865
0.0865
0.0865
0.0865
0.0865
0.0889
0.0889
0.0889
0.0889
0.0889
0.0889
0.0889
0.0889
0.0889
0.0865
0.0865
0.0889
0.0889
0.0889
0.0889
0.0913
0.0938
0.0938
0.0962
0.0962
0.0986
0.0986
0.1010
0.1010
0.1010
0.1034
0.1034
0.1034
0.1034
0.1034
0.1058
0.1058
0.1058
0.1082
0.1082
0.1106
0.1106
0.1106
0.1106
0.1130
0.1130
0.1130
0.1130
0.1130
0.1130
0.1130
0.1130
0.1106
0.1106
0.1106
0.1106
0.1106
0.1106
0.1082
0.1082
0.1082
0.1058
0.1058
0.1058
0.1034
0.1034
0.1034
0.1034
0.1034
0.1034
0.1034
0.1034
0.1034
0.1034
0.1034
0.1034
0.1034
0.1034
0.1034
0.1010
0.1010
0.1010
0.1010
0.1010
0.1010
0.0986
0.0986
0.0986
0.0986
0.0986
0.0986
0.0986
0.0986
0.0986
0.0986
0.0986
0.0986
0.0986
0.0986
0.0986
0.0986
0.0986
0.0986
0.0986
0.0986
0.0986
0.0962
0.0962
0.0962
0.0962
0.0962
0.0962
0.0962
0.0962
0.0962
0.0962
0.0938
0.0962
0.0962
0.0962
0.0962
0.0962
0.0962
0.0986
0.0986
0.0986
0.0986
0.0986
0.0986
0.0986
0.0986
0.0986
0.0986
0.0962
0.0962
0.0962
0.0962
0.0962
0.0962
0.0962
0.0986
0.0986
0.0986
0.0986
0.0986
0.1010
0.1010
0.1010
0.1010
0.1010
0.1010
0.1010
0.1010
0.1034
0.1034
0.1034
0.1034
0.1034
0.1034
0.1034
0.1034
0.1034
0.1010
0.1010
0.1010
0.1010
0.1010
0.1010
0.1010
0.1010
0.1010
0.1010
0.1034
0.1034
0.1034
0.1034
0.1034
0.1034
0.1034
0.1034
0.1034
0.1034
0.1034
0.1034
0.1058
0.1058
0.1058
0.1058
0.1058
0.1082
0.1082
0.1082
0.1082
0.1058
0.1058
0.1058
0.1058
0.1082
0.1082
0.1082
0.1082
0.1082
0.1082
0.1082
0.1058
0.1058
0.1058
0.1058
0.1058
0.1058
0.1058
0.1058
0.1058
0.1082
0.1106
0.1130
0.1130
0.1178
0.1202
0.1226
0.1250
0.1274
0.1298
0.1322
0.1322
0.1346
0.1370
0.1370
0.1394
0.1394
0.1418
0.1442
0.1442
0.1466
0.1490
0.1514
0.1538
0.1538
0.1563
0.1563
0.1563
0.1563
0.1538
0.1538
0.1538
0.1514
0.1514
0.1514
0.1490
0.1490
0.1466
0.1442
0.1442
0.1394
0.1346
0.1322
0.1274
0.1226
0.1178
0.1130
0.1082
0.1058
0.1034
0.1010
0.0986
0.0962
0.0962
0.0938
0.0938
0.0938
0.0938
0.0938
0.0938
0.0938
0.0938
0.0938
0.0938
0.0938
0.0938
0.0962
0.0962
0.0962
0.0962
0.0962
0.0962
0.0962
0.0938
0.0938
0.0913
0.0913
0.0938
0.0962
0.1058
0.1202
0.1442
0.1803
0.2284
0.2885
0.3606
0.4423
0.5313
0.6226
0.7115
0.7933
0.8606
0.9087
0.9327
0.9255
0.8918
0.8317
0.7500
0.6538
0.5481
0.4399
0.3413
0.2524
0.1779
0.1178
0.0769
0.0457
0.0264
0.0144
0.0096
0.0072
0.0096
0.0144
0.0192
0.0240
0.0264
0.0313
0.0337
0.0361
0.0385
0.0409
0.0433
0.0433
0.0433
0.0457
0.0457
0.0457
0.0481
0.0481
0.0481
0.0481
0.0505
0.0505
0.0505
0.0529
0.0529
0.0529
0.0553
0.0553
0.0553
0.0553
0.0577
0.0577
0.0577
0.0577
0.0577
0.0577
0.0577
