ECG
0.1634
0.1508
0.1562
0.1741
0.2011
0.2334
0.2585
0.2765
0.2855
0.2962
0.3142
0.3375
0.3645
0.3896
0.4075
0.4129
0.4093
0.4039
0.4039
0.4111
0.4255
0.4399
0.4488
0.4488
0.4399
0.4291
0.4237
0.4255
0.4363
0.4524
0.4614
0.4614
0.4560
0.4452
0.4345
0.4327
0.4417
0.4560
0.4668
0.4704
0.4668
0.4560
0.4452
0.4399
0.4452
0.4578
0.4704
0.4776
0.4758
0.4668
0.4560
0.4488
0.4506
0.4614
0.4740
0.4829
0.4847
0.4794
0.4686
0.4596
0.4578
0.4668
0.4794
0.4901
0.4919
0.4883
0.4794
0.4704
0.4668
0.4704
0.4829
0.4955
0.5027
0.5009
0.4919
0.4811
0.4740
0.4758
0.4865
0.5009
0.5117
0.5135
0.5081
0.4973
0.4901
0.4919
0.5009
0.5153
0.5260
0.5314
0.5278
0.5189
0.5099
0.5081
0.5135
0.5242
0.5386
0.5440
0.5440
0.5350
0.5242
0.5171
0.5206
0.5296
0.5404
0.5476
0.5476
0.5386
0.5260
0.5171
0.5153
0.5206
0.5314
0.5404
0.5404
0.5332
0.5189
0.5045
0.4955
0.4955
0.5009
0.5081
0.5081
0.5009
0.4865
0.4686
0.4560
0.4524
0.4578
0.4650
0.4686
0.4668
0.4542
0.4363
0.4219
0.4165
0.4201
0.4309
0.4381
0.4363
0.4273
0.4147
0.4022
0.3950
0.3986
0.4093
0.4201
0.4237
0.4201
0.4075
0.3950
0.3896
0.3896
0.3986
0.4111
0.4183
0.4183
0.4093
0.3986
0.3896
0.3878
0.3968
0.4075
0.4165
0.4201
0.4129
0.4022
0.3896
0.3860
0.3896
0.4004
0.4129
0.4165
0.4129
0.4039
0.3914
0.3860
0.3878
0.3968
0.4093
0.4165
0.4165
0.4093
0.3968
0.3896
0.3896
0.3968
0.4075
0.4183
0.4219
0.4165
0.4057
0.3950
0.3932
0.3986
0.4093
0.4201
0.4255
0.4237
0.4129
0.4022
0.3968
0.3986
0.4093
0.4219
0.4291
0.4291
0.4219
0.4111
0.4022
0.4004
0.4075
0.4201
0.4309
0.4345
0.4273
0.4165
0.4057
0.4004
0.4057
0.4165
0.4291
0.4345
0.4309
0.4219
0.4093
0.4039
0.4075
0.4183
0.4309
0.4399
0.4381
0.4291
0.4183
0.4093
0.4075
0.4147
0.4273
0.4381
0.4399
0.4345
0.4237
0.4129
0.4075
0.4129
0.4255
0.4363
0.4417
0.4363
0.4255
0.4147
0.4093
0.4111
0.4201
0.4327
0.4417
0.4399
0.4309
0.4183
0.4111
0.4111
0.4183
0.4309
0.4399
0.4434
0.4363
0.4237
0.4147
0.4111
0.4165
0.4273
0.4399
0.4470
0.4452
0.4309
0.4183
0.4129
0.4147
0.4255
0.4381
0.4488
0.4470
0.4345
0.4201
0.4129
0.4111
0.4201
0.4327
0.4452
0.4470
0.4399
0.4309
0.4273
0.4291
0.4381
0.4542
0.4686
0.4740
0.4722
0.4614
0.4506
0.4470
0.4524
0.4632
0.4758
0.4811
0.4794
0.4668
0.4506
0.4381
0.4345
0.4399
0.4506
0.4578
0.4560
0.4470
0.4291
0.4165
0.4129
0.4165
0.4273
0.4399
0.4452
0.4399
0.4291
0.4165
0.4111
0.4129
0.4237
0.4363
0.4452
0.4452
0.4345
0.4201
0.4129
0.4183
0.4345
0.4596
0.4829
0.5027
0.5189
0.5350
0.5619
0.6050
0.6607
0.7271
0.7917
0.8366
0.8510
0.8312
0.7774
0.6948
0.5871
0.4722
0.3752
0.3052
0.2496
0.2065
0.1724
0.1526
0.1472
0.1580
0.1813
0.2065
0.2316
0.2513
0.2639
0.2765
0.2944
0.3214
0.3501
0.3770
0.3968
0.4057
0.4057
0.4004
0.3986
0.4057
0.4201
0.4345
0.4470
0.4470
0.4381
0.4273
0.4201
0.4219
0.4309
0.4470
0.4560
0.4578
0.4524
0.4381
0.4291
0.4255
0.4327
0.4488
0.4614
0.4668
0.4632
0.4524
0.4399
0.4363
0.4399
0.4524
0.4650
0.4722
0.4722
0.4632
0.4506
0.4452
0.4470
0.4578
0.4704
0.4811
0.4829
0.4758
0.4650
0.4542
0.4524
0.4596
0.4704
0.4829
0.4865
0.4829
0.4722
0.4632
0.4596
0.4632
0.4758
0.4883
0.4955
0.4937
0.4865
0.4758
0.4704
0.4722
0.4794
0.4937
0.5045
0.5063
0.5009
0.4901
0.4829
0.4829
0.4901
0.5027
0.5153
0.5189
0.5171
0.5081
0.4973
0.4937
0.5009
0.5135
0.5260
0.5332
0.5332
0.5242
0.5135
0.5081
0.5099
0.5189
0.5314
0.5404
0.5422
0.5350
0.5224
0.5117
0.5081
0.5135
0.5242
0.5332
0.5332
0.5278
0.5135
0.5009
0.4937
0.4937
0.5009
0.5081
0.5099
0.5027
0.4865
0.4686
0.4560
0.4506
0.4560
0.4632
0.4668
0.4632
0.4506
0.4327
0.4183
0.4129
0.4147
0.4237
0.4327
0.4327
0.4255
0.4111
0.4004
0.3950
0.3968
0.4057
0.4165
0.4219
0.4183
0.4057
0.3950
0.3878
0.3878
0.3968
0.4075
0.4147
0.4147
0.4075
0.3950
0.3860
0.3842
0.3896
0.4022
0.4111
0.4147
0.4093
0.3986
0.3878
0.3824
0.3842
0.3950
0.4075
0.4147
0.4111
0.4004
0.3878
0.3806
0.3806
0.3914
0.4039
0.4129
0.4147
0.4075
0.3950
0.3860
0.3860
0.3914
0.4039
0.4147
0.4183
0.4129
0.4022
0.3914
0.3878
0.3932
0.4039
0.4147
0.4219
0.4183
0.4093
0.3968
0.3896
0.3914
0.4022
0.4165
0.4237
0.4237
0.4165
0.4039
0.3950
0.3950
0.4004
0.4129
0.4237
0.4255
0.4201
0.4093
0.3986
0.3950
0.3986
0.4111
0.4237
0.4309
0.4291
0.4183
0.4057
0.3986
0.4004
0.4093
0.4219
0.4309
0.4327
0.4237
0.4129
0.4039
0.4022
0.4075
0.4219
0.4327
0.4363
0.4309
0.4183
0.4075
0.4022
0.4057
0.4183
0.4309
0.4363
0.4327
0.4219
0.4093
0.4022
0.4039
0.4129
0.4255
0.4345
0.4345
0.4255
0.4147
0.4057
0.4057
0.4147
0.4255
0.4363
0.4381
0.4327
0.4201
0.4093
0.4057
0.4111
0.4219
0.4345
0.4381
0.4363
0.4255
0.4147
0.4075
0.4093
0.4183
0.4309
0.4399
0.4399
0.4309
0.4165
0.4075
0.4057
0.4129
0.4255
0.4363
0.4399
0.4327
0.4219
0.4111
0.4075
0.4129
0.4237
0.4363
0.4417
0.4381
0.4273
0.4147
0.4075
0.4093
0.4201
0.4345
0.4452
0.4470
0.4363
0.4219
0.4129
0.4111
0.4183
0.4291
0.4381
0.4399
0.4345
0.4237
0.4183
0.4201
0.4291
0.4470
0.4632
0.4704
0.4686
0.4578
0.4452
0.4399
0.4470
0.4560
0.4686
0.4758
0.4740
0.4614
0.4470
0.4327
0.4291
0.4345
0.4470
0.4542
0.4542
0.4452
0.4291
0.4147
0.4093
0.4129
0.4255
0.4363
0.4399
0.4327
0.4237
0.4129
0.4075
0.4093
0.4183
0.4327
0.4399
0.4381
0.4291
0.4165
0.4075
0.4111
0.4237
0.4470
0.4722
0.4919
0.5063
0.5224
0.5476
0.5871
0.6445
0.7074
0.7702
0.8205
0.8456
0.8330
0.7864
0.7074
0.6050
0.4901
0.3878
0.3124
0.2549
0.2118
0.1795
0.1562
0.1508
0.1598
0.1831
0.2083
0.2316
0.2513
0.2639
0.2747
0.2890
0.3124
0.3411
0.3698
0.3896
0.4004
0.4004
0.3950
0.3950
0.4022
0.4147
0.4309
0.4399
0.4399
0.4327
0.4201
0.4147
0.4147
0.4237
0.4381
0.4506
0.4542
0.4506
0.4363
0.4273
0.4237
0.4309
0.4452
0.4578
0.4632
0.4596
0.4488
0.4363
0.4309
0.4345
0.4470
0.4596
0.4668
0.4668
0.4578
0.4470
0.4381
0.4399
0.4488
0.4614
0.4722
0.4758
0.4704
0.4578
0.4470
0.4452
0.4542
0.4668
0.4776
0.4829
0.4794
0.4686
0.4578
0.4524
0.4578
0.4686
0.4811
0.4883
0.4883
0.4811
0.4704
0.4650
0.4650
0.4740
0.4883
0.4991
0.5009
0.4955
0.4847
0.4758
0.4740
0.4811
0.4937
0.5063
0.5117
0.5099
0.5009
0.4901
0.4865
0.4919
0.5045
0.5171
0.5242
0.5242
0.5171
0.5045
0.4973
0.4973
0.5063
0.5189
0.5278
0.5278
0.5224
0.5117
0.5009
0.4973
0.5027
0.5135
0.5224
0.5242
0.5171
0.5045
0.4901
0.4829
0.4829
0.4901
0.4991
0.5027
0.4955
0.4829
0.4650
0.4524
0.4488
0.4542
0.4614
0.4668
0.4632
0.4524
0.4327
0.4201
0.4129
0.4165
0.4255
0.4327
0.4309
0.4255
0.4129
0.4004
0.3932
0.3932
0.4022
0.4129
0.4183
0.4147
0.4039
0.3914
0.3842
0.3842
0.3914
0.4039
0.4111
0.4129
0.4039
0.3932
0.3842
0.3806
0.3860
0.3986
0.4093
0.4129
0.4075
0.3968
0.3860
0.3824
0.3860
0.3950
0.4075
0.4147
0.4129
0.4022
0.3896
0.3824
0.3824
0.3896
0.4022
0.4111
0.4129
0.4057
0.3950
0.3860
0.3860
0.3914
0.4022
0.4147
0.4183
0.4147
0.4039
0.3932
0.3896
0.3932
0.4022
0.4147
0.4201
0.4183
0.4093
0.3968
0.3896
0.3914
0.4004
0.4147
0.4237
0.4255
0.4183
0.4057
0.3950
0.3932
0.4004
0.4129
0.4255
0.4273
0.4219
0.4111
0.4004
0.3968
0.4004
0.4111
0.4237
0.4291
0.4273
0.4183
0.4057
0.3986
0.4004
0.4075
0.4201
0.4291
0.4309
0.4237
0.4111
0.4004
0.3986
0.4075
0.4201
0.4309
0.4327
0.4273
0.4147
0.4039
0.3986
0.4022
0.4129
0.4273
0.4327
0.4291
0.4219
0.4093
0.4039
0.4039
0.4111
0.4255
0.4345
0.4345
0.4255
0.4129
0.4039
0.4004
0.4075
0.4201
0.4327
0.4363
0.4309
0.4201
0.4093
0.4057
0.4093
0.4183
0.4309
0.4363
0.4327
0.4237
0.4111
0.4057
0.4111
0.4255
0.4452
0.4560
0.4596
0.4560
0.4452
0.4345
0.4345
0.4452
0.4578
0.4704
0.4722
0.4668
0.4524
0.4381
0.4309
0.4345
0.4452
0.4542
0.4578
0.4524
0.4381
0.4219
0.4129
0.4129
0.4201
0.4309
0.4381
0.4363
0.4273
0.4147
0.4057
0.4057
0.4111
0.4237
0.4345
0.4363
0.4327
0.4201
0.4093
0.4057
0.4093
0.4219
0.4381
0.4524
0.4614
0.4650
0.4686
0.4811
0.5099
0.5530
0.6104
0.6679
0.7199
0.7630
0.7917
0.8007
0.7899
0.7558
0.6930
0.5978
0.4811
0.3716
0.2873
0.2262
0.1903
0.1759
0.1759
0.1813
0.1885
0.1957
0.1975
0.2047
0.2244
0.2496
0.2783
0.3106
0.3357
0.3519
0.3609
0.3645
0.3698
0.3806
0.3968
0.4147
0.4291
0.4345
0.4309
0.4219
0.4147
0.4129
0.4183
0.4309
0.4470
0.4524
0.4506
0.4399
0.4291
0.4237
0.4273
0.4381
0.4542
0.4632
0.4632
0.4542
0.4417
0.4327
0.4327
0.4452
0.4578
0.4686
0.4704
0.4668
0.4560
0.4470
0.4434
0.4488
0.4596
0.4740
0.4776
0.4740
0.4650
0.4542
0.4488
0.4524
0.4614
0.4758
0.4847
0.4847
0.4776
0.4650
0.4578
0.4596
0.4668
0.4794
0.4901
0.4937
0.4883
0.4776
0.4686
0.4668
0.4740
0.4865
0.4991
0.5045
0.5027
0.4937
0.4847
0.4794
0.4829
0.4937
0.5081
0.5153
0.5153
0.5099
0.4991
0.4937
0.4955
0.5045
0.5189
0.5296
0.5332
0.5296
0.5189
0.5099
0.5099
0.5153
0.5260
0.5386
0.5440
0.5422
0.5314
0.5206
0.5153
0.5171
0.5260
0.5368
0.5422
0.5404
0.5296
0.5153
0.5045
0.5009
0.5063
0.5153
0.5189
0.5153
0.5045
0.4865
0.4722
0.4632
0.4614
0.4668
0.4740
0.4740
0.4632
0.4470
0.4291
0.4183
0.4165
0.4219
0.4327
0.4363
0.4327
0.4219
0.4075
0.3968
0.3968
0.4022
0.4129
0.4201
0.4219
0.4129
0.4004
0.3896
0.3860
0.3914
0.4022
0.4129
0.4165
0.4129
0.4022
0.3896
0.3842
0.3860
0.3950
0.4075
0.4129
0.4129
0.4039
0.3914
0.3824
0.3824
0.3896
0.4022
0.4129
0.4129
0.4057
0.3950
0.3842
0.3842
0.3896
0.4022
0.4111
0.4165
0.4111
0.4004
0.3896
0.3860
0.3878
0.3986
0.4111
0.4183
0.4165
0.4093
0.3968
0.3896
0.3896
0.3986
0.4111
0.4201
0.4201
0.4147
0.4022
0.3932
0.3914
0.3968
0.4093
0.4219
0.4255
0.4219
0.4111
0.4004
0.3950
0.4004
0.4111
0.4237
0.4309
0.4291
0.4219
0.4093
0.4022
0.4022
0.4111
0.4237
0.4309
0.4309
0.4255
0.4129
0.4039
0.4022
0.4075
0.4201
0.4309
0.4345
0.4291
0.4183
0.4075
0.4039
0.4075
0.4183
0.4309
0.4381
0.4363
0.4255
0.4129
0.4057
0.4057
0.4129
0.4255
0.4363
0.4363
0.4291
0.4165
0.4075
0.4057
0.4129
0.4273
0.4363
0.4399
0.4345
0.4237
0.4111
0.4075
0.4111
0.4219
0.4345
0.4399
0.4381
0.4291
0.4183
0.4093
0.4111
0.4183
0.4309
0.4417
0.4434
0.4345
0.4201
0.4129
0.4129
0.4219
0.4381
0.4560
0.4650
0.4632
0.4542
0.4417
0.4381
0.4470
0.4596
0.4722
0.4794
0.4758
0.4668
0.4506
0.4399
0.4381
0.4470
0.4578
0.4614
0.4596
0.4488
0.4327
0.4219
0.4165
0.4201
0.4291
0.4399
0.4417
0.4345
0.4237
0.4129
0.4093
0.4129
0.4237
0.4363
0.4452
0.4417
0.4309
0.4183
0.4111
0.4129
0.4201
0.4345
0.4506
0.4596
0.4650
0.4686
0.4794
0.5027
0.5386
0.5907
0.6481
0.7002
0.7451
0.7810
0.8061
0.8115
0.7935
0.7469
0.6679
0.5583
0.4363
0.3339
0.2585
0.2083
0.1813
0.1741
0.1777
0.1849
0.1903
0.1921
0.1975
0.2136
0.2370
0.2657
0.2962
0.3268
0.3483
0.3609
0.3680
0.3734
0.3824
0.3968
0.4165
0.4327
0.4434
0.4452
0.4345
0.4237
0.4183
0.4219
0.4327
0.4506
0.4578
0.4596
0.4524
0.4381
0.4309
0.4309
0.4399
0.4560
0.4668
0.4704
0.4650
0.4542
0.4434
0.4399
0.4470
0.4578
0.4704
0.4776
0.4758
0.4668
0.4542
0.4488
0.4524
0.4632
0.4776
0.4847
0.4847
0.4776
0.4650
0.4578
0.4578
0.4650
0.4794
0.4901
0.4937
0.4883
0.4794
0.4686
0.4650
0.4704
0.4829
0.4955
0.5009
0.4991
0.4901
0.4794
0.4740
0.4776
0.4865
0.5009
0.5099
0.5117
0.5045
0.4937
0.4865
0.4883
0.4973
0.5117
0.5224
0.5260
0.5224
0.5117
0.5027
0.5009
0.5081
0.5206
0.5332
0.5404
0.5386
0.5314
0.5206
0.5153
0.5189
0.5278
0.5404
0.5476
0.5476
0.5404
0.5278
0.5189
0.5189
0.5242
0.5368
0.5458
0.5476
0.5404
0.5278
0.5153
0.5099
0.5117
0.5171
0.5260
0.5260
0.5171
0.5027
0.4865
0.4740
0.4722
0.4758
0.4829
0.4847
0.4794
0.4668
0.4488
0.4345
0.4291
0.4327
0.4417
0.4488
0.4488
0.4363
0.4219
0.4093
0.4039
0.4075
0.4183
0.4291
0.4327
0.4273
0.4147
0.4022
0.3968
0.3968
0.4057
0.4165
0.4237
0.4237
0.4147
0.4004
0.3932
0.3914
0.4004
0.4129
0.4219
0.4237
0.4183
0.4057
0.3932
0.3896
0.3950
0.4057
0.4165
0.4201
0.4165
0.4057
0.3932
0.3878
0.3896
0.4004
0.4129
0.4201
0.4183
0.4093
0.3986
0.3914
0.3914
0.4004
0.4129
0.4237
0.4255
0.4201
0.4075
0.3986
0.3950
0.4022
0.4147
0.4273
0.4309
0.4273
0.4165
0.4039
0.3986
0.4004
0.4111
0.4255
0.4309
0.4309
0.4237
0.4111
0.4039
0.4039
0.4111
0.4237
0.4345
0.4345
0.4273
0.4147
0.4057
0.4022
0.4075
0.4201
0.4327
0.4381
0.4345
0.4255
0.4129
0.4093
0.4129
0.4219
0.4345
0.4452
0.4434
0.4327
0.4201
0.4111
0.4111
0.4219
0.4345
0.4452
0.4452
0.4381
0.4255
0.4147
0.4111
0.4165
0.4291
0.4399
0.4452
0.4381
0.4273
0.4147
0.4093
0.4129
0.4237
0.4363
0.4452
0.4417
0.4327
0.4201
0.4129
0.4147
0.4237
0.4363
0.4470
0.4488
0.4399
0.4273
0.4183
0.4165
0.4237
0.4363
0.4488
0.4524
0.4488
0.4363
0.4237
0.4201
0.4237
0.4345
0.4488
0.4542
0.4506
0.4381
0.4255
0.4183
0.4165
0.4273
0.4434
0.4596
0.4668
0.4632
0.4542
0.4470
0.4452
0.4506
0.4650
0.4776
0.4829
0.4811
0.4704
0.4596
0.4542
0.4560
0.4650
0.4758
0.4794
0.4758
0.4632
0.4470
0.4345
0.4309
0.4381
0.4506
0.4578
0.4542
0.4452
0.4309
0.4201
0.4165
0.4219
0.4345
0.4470
0.4506
0.4452
0.4309
0.4201
0.4147
0.4183
0.4291
0.4452
0.4524
0.4524
0.4470
0.4417
0.4488
0.4668
0.4991
0.5350
0.5727
0.6122
0.6517
0.6930
0.7379
0.7864
0.8276
0.8456
0.8312
0.7720
0.6804
0.5601
0.4291
0.3268
0.2621
0.2262
0.2101
0.1975
0.1867
0.1777
0.1724
0.1759
0.1939
0.2280
0.2675
0.2980
0.3196
0.3321
0.3375
0.3465
0.3627
0.3824
0.4057
0.4273
0.4363
0.4363
0.4291
0.4201
0.4183
0.4255
0.4381
0.4542
0.4614
0.4614
0.4524
0.4399
0.4327
0.4345
0.4470
0.4614
0.4704
0.4722
0.4650
0.4524
0.4452
0.4417
0.4506
0.4632
0.4758
0.4794
0.4740
0.4632
0.4524
0.4506
0.4542
0.4668
0.4794
0.4865
0.4829
0.4740
0.4614
0.4560
0.4596
0.4704
0.4829
0.4919
0.4919
0.4847
0.4740
0.4650
0.4650
0.4722
0.4865
0.4973
0.5009
0.4955
0.4865
0.4758
0.4740
0.4776
0.4901
0.5027
0.5099
0.5081
0.4991
0.4883
0.4829
0.4865
0.4955
0.5099
0.5206
0.5224
0.5153
0.5045
0.4973
0.4973
0.5063
0.5206
0.5332
0.5386
0.5350
0.5242
0.5135
0.5099
0.5153
0.5278
0.5404
0.5476
0.5458
0.5368
0.5242
0.5189
0.5189
0.5296
0.5422
0.5494
0.5476
0.5386
0.5242
0.5135
0.5099
0.5153
0.5242
0.5314
0.5314
0.5224
0.5063
0.4919
0.4829
0.4847
0.4901
0.4955
0.4955
0.4883
0.4722
0.4542
0.4399
0.4363
0.4434
0.4524
0.4560
0.4524
0.4399
0.4237
0.4111
0.4075
0.4129
0.4237
0.4327
0.4327
0.4237
0.4111
0.3986
0.3914
0.3950
0.4057
0.4183
0.4219
0.4183
0.4075
0.3950
0.3896
0.3932
0.4022
0.4147
0.4219
0.4201
0.4111
0.3986
0.3896
0.3878
0.3950
0.4075
0.4165
0.4183
0.4129
0.4022
0.3896
0.3860
0.3914
0.4039
0.4147
0.4201
0.4165
0.4057
0.3932
0.3878
0.3896
0.4004
0.4147
0.4219
0.4201
0.4111
0.4004
0.3914
0.3914
0.3986
0.4111
0.4219
0.4237
0.4183
0.4075
0.3968
0.3932
0.3986
0.4111
0.4237
0.4291
0.4273
0.4165
0.4039
0.3968
0.4004
0.4093
0.4219
0.4291
0.4273
0.4201
0.4075
0.4004
0.4004
0.4075
0.4219
0.4327
0.4345
0.4273
0.4147
0.4057
0.4022
0.4075
0.4201
0.4327
0.4381
0.4345
0.4237
0.4111
0.4057
0.4093
0.4183
0.4309
0.4381
0.4381
0.4273
0.4147
0.4075
0.4075
0.4147
0.4273
0.4381
0.4381
0.4309
0.4201
0.4093
0.4057
0.4111
0.4219
0.4345
0.4399
0.4345
0.4237
0.4111
0.4057
0.4093
0.4183
0.4327
0.4399
0.4381
0.4291
0.4165
0.4093
0.4093
0.4165
0.4291
0.4399
0.4417
0.4345
0.4219
0.4111
0.4093
0.4147
0.4273
0.4381
0.4452
0.4399
0.4291
0.4165
0.4093
0.4111
0.4219
0.4345
0.4434
0.4399
0.4327
0.4201
0.4129
0.4111
0.4183
0.4309
0.4399
0.4417
0.4327
0.4201
0.4111
0.4129
0.4237
0.4399
0.4596
0.4668
0.4668
0.4560
0.4452
0.4381
0.4452
0.4578
0.4722
0.4794
0.4794
0.4704
0.4542
0.4399
0.4381
0.4452
0.4542
0.4614
0.4596
0.4506
0.4345
0.4201
0.4147
0.4183
0.4273
0.4381
0.4417
0.4345
0.4237
0.4111
0.4057
0.4093
0.4201
0.4345
0.4434
0.4417
0.4309
0.4183
0.4111
0.4129
0.4219
0.4363
0.4524
0.4614
0.4650
0.4686
0.4776
0.5009
0.5368
0.5889
0.6499
0.7074
0.7558
0.7935
0.8169
0.8223
0.8025
0.7558
0.6768
0.5637
0.4381
0.3321
0.2531
0.2011
0.1741
0.1670
0.1706
0.1795
0.1867
0.1921
0.1993
0.2154
0.2388
0.2693
0.3016
0.3303
0.3519
0.3645
0.3698
0.3734
0.3806
0.3932
0.4111
0.4273
0.4363
0.4381
0.4309
0.4201
0.4147
0.4165
0.4273
0.4434
0.4542
0.4560
0.4488
0.4363
0.4273
0.4273
0.4345
0.4488
0.4614
0.4650
0.4614
0.4506
0.4381
0.4345
0.4399
0.4542
0.4650
0.4722
0.4722
0.4632
0.4524
0.4452
0.4488
0.4596
0.4722
0.4811
0.4829
0.4758
0.4650
0.4560
0.4542
0.4614
0.4740
0.4847
0.4883
0.4829
0.4722
0.4632
0.4596
0.4650
0.4758
0.4883
0.4955
0.4937
0.4847
0.4740
0.4686
0.4722
0.4811
0.4955
0.5063
0.5081
0.5009
0.4901
0.4829
0.4829
0.4919
0.5063
0.5171
0.5224
0.5189
0.5081
0.4991
0.4955
0.5027
0.5153
0.5278
0.5350
0.5332
0.5242
0.5135
0.5081
0.5099
0.5206
0.5350
0.5422
0.5422
0.5350
0.5242
0.5153
0.5135
0.5189
0.5296
0.5404
0.5422
0.5368
0.5242
0.5099
0.5045
0.5063
0.5153
0.5224
0.5242
0.5171
0.5009
0.4847
0.4722
0.4686
0.4722
0.4794
0.4811
0.4776
0.4650
0.4488
0.4327
0.4255
0.4291
0.4381
0.4470
0.4452
0.4345
0.4183
0.4057
0.4004
0.4022
0.4111
0.4219
0.4273
0.4237
0.4111
0.3986
0.3914
0.3932
0.4004
0.4111
0.4183
0.4183
0.4111
0.3968
0.3878
0.3878
0.3950
0.4075
0.4165
0.4183
0.4129
0.4022
0.3896
0.3860
0.3896
0.4022
0.4147
0.4183
0.4147
0.4039
0.3914
0.3860
0.3878
0.3986
0.4111
0.4201
0.4201
0.4111
0.3968
0.3896
0.3896
0.3986
0.4093
0.4201
0.4237
0.4165
0.4057
0.3950
0.3914
0.3968
0.4093
0.4219
0.4273
0.4237
0.4129
0.4022
0.3950
0.3968
0.4075
0.4219
0.4291
0.4273
0.4183
0.4057
0.3986
0.3986
0.4057
0.4201
0.4327
0.4345
0.4273
0.4147
0.4057
0.4039
0.4075
0.4183
0.4309
0.4381
0.4345
0.4237
0.4111
0.4057
0.4075
0.4183
0.4309
0.4399
0.4381
0.4291
0.4165
0.4093
0.4075
0.4147
0.4273
0.4381
0.4399
0.4327
0.4219
0.4093
0.4057
0.4111
0.4255
0.4381
0.4452
0.4381
0.4255
0.4147
0.4093
0.4111
0.4201
0.4345
0.4434
0.4417
0.4327
0.4183
0.4111
0.4111
0.4201
0.4327
0.4417
0.4452
0.4363
0.4237
0.4129
0.4093
0.4147
0.4273
0.4399
0.4470
0.4417
0.4309
0.4183
0.4129
0.4147
0.4255
0.4381
0.4470
0.4452
0.4327
0.4201
0.4111
0.4111
0.4201
0.4327
0.4452
0.4488
0.4399
0.4255
0.4147
0.4129
0.4165
0.4273
0.4399
0.4470
0.4452
0.4345
0.4273
0.4273
0.4345
0.4506
0.4668
0.4758
0.4758
0.4668
0.4560
0.4470
0.4488
0.4578
0.4704
0.4794
0.4776
0.4668
0.4524
0.4399
0.4345
0.4363
0.4470
0.4560
0.4578
0.4524
0.4363
0.4219
0.4147
0.4147
0.4237
0.4363
0.4452
0.4417
0.4309
0.4183
0.4129
0.4129
0.4219
0.4363
0.4470
0.4488
0.4399
0.4273
0.4165
0.4165
0.4273
0.4506
0.4776
0.4973
0.5117
0.5242
0.5440
0.5781
0.6284
0.6930
0.7594
0.8151
0.8402
0.8312
0.7846
0.7092
0.6176
0.5135
0.4111
0.3321
0.2729
0.2262
0.1903
0.1652
0.1562
0.1652
0.1849
0.2065
0.2298
0.2496
0.2639
0.2747
0.2890
0.3124
0.3411
0.3698
0.3914
0.4039
0.4075
0.4039
0.4004
0.4039
0.4165
0.4327
0.4452
0.4488
0.4417
0.4309
0.4237
0.4219
0.4291
0.4452
0.4578
0.4632
0.4596
0.4488
0.4381
0.4327
0.4381
0.4506
0.4632
0.4704
0.4686
0.4596
0.4488
0.4399
0.4434
0.4542
0.4686
0.4776
0.4794
0.4722
0.4614
0.4506
0.4488
0.4560
0.4686
0.4811
0.4829
0.4794
0.4668
0.4560
0.4524
0.4578
0.4686
0.4829
0.4901
0.4883
0.4794
0.4686
0.4650
0.4668
0.4776
0.4883
0.4991
0.4991
0.4937
0.4829
0.4740
0.4740
0.4811
0.4937
0.5045
0.5099
0.5063
0.4973
0.4883
0.4847
0.4901
0.5027
0.5171
0.5242
0.5224
0.5135
0.5027
0.4973
0.4991
0.5099
0.5242
0.5332
0.5350
0.5296
0.5189
0.5117
0.5099
0.5171
0.5296
0.5404
0.5440
0.5386
0.5278
0.5153
0.5117
0.5153
0.5260
0.5368
0.5404
0.5350
0.5206
0.5063
0.4973
0.4937
0.5009
0.5099
0.5117
0.5063
0.4937
0.4758
0.4632
0.4560
0.4578
0.4668
0.4704
0.4686
0.4578
0.4399
0.4255
0.4183
0.4183
0.4255
0.4345
0.4381
0.4327
0.4201
0.4075
0.3986
0.4004
0.4093
0.4201
0.4273
0.4255
0.4165
0.4022
0.3932
0.3914
0.3968
0.4075
0.4165
0.4201
0.4165
0.4039
0.3932
0.3878
0.3932
0.4022
0.4147
0.4201
0.4165
0.4039
0.3932
0.3860
0.3878
0.3968
0.4093
0.4183
0.4183
0.4111
0.3986
0.3914
0.3914
0.3986
0.4093
0.4201
0.4237
0.4183
0.4057
0.3950
0.3914
0.3968
0.4093
0.4219
0.4255
0.4237
0.4147
0.4022
0.3950
0.3968
0.4075
0.4219
0.4291
0.4273
0.4183
0.4057
0.3986
0.3968
0.4039
0.4183
0.4309
0.4327
0.4273
0.4165
0.4057
0.4039
0.4093
0.4201
0.4327
0.4399
0.4363
0.4255
0.4129
0.4057
0.4093
0.4201
0.4327
0.4399
0.4399
0.4327
0.4183
0.4093
0.4093
0.4165
0.4291
0.4381
0.4399
0.4327
0.4219
0.4129
0.4093
0.4147
0.4273
0.4399
0.4470
0.4417
0.4291
0.4183
0.4129
0.4147
0.4237
0.4363
0.4470
0.4470
0.4345
0.4219
0.4147
0.4147
0.4219
0.4363
0.4488
0.4506
0.4434
0.4291
0.4183
0.4147
0.4201
0.4309
0.4452
0.4488
0.4452
0.4327
0.4219
0.4147
0.4183
0.4291
0.4452
0.4524
0.4506
0.4381
0.4273
0.4183
0.4183
0.4237
0.4363
0.4488
0.4542
0.4506
0.4434
0.4363
0.4381
0.4506
0.4650
0.4758
0.4811
0.4794
0.4686
0.4596
0.4560
0.4596
0.4686
0.4794
0.4829
0.4794
0.4686
0.4524
0.4399
0.4363
0.4417
0.4524
0.4596
0.4578
0.4488
0.4327
0.4201
0.4183
0.4237
0.4363
0.4488
0.4524
0.4470
0.4327
0.4219
0.4183
0.4219
0.4309
0.4452
0.4524
0.4506
0.4399
0.4291
0.4237
0.4309
0.4542
0.4811
0.5081
0.5314
0.5512
0.5727
0.6032
0.6517
0.7092
0.7720
0.8223
0.8438
0.8259
0.7666
0.6804
0.5781
0.4650
0.3698
0.3088
0.2639
0.2298
0.2011
0.1777
0.1652
0.1688
0.1849
0.2101
0.2424
0.2693
0.2855
0.2944
0.3052
0.3214
0.3465
0.3752
0.4004
0.4183
0.4237
0.4201
0.4129
0.4111
0.4183
0.4309
0.4470
0.4560
0.4560
0.4470
0.4363
0.4291
0.4309
0.4417
0.4560
0.4668
0.4686
0.4632
0.4506
0.4399
0.4399
0.4470
0.4596
0.4722
0.4776
0.4740
0.4632
0.4524
0.4470
0.4524
0.4650
0.4794
0.4865
0.4865
0.4776
0.4632
0.4560
0.4578
0.4668
0.4811
0.4901
0.4919
0.4847
0.4740
0.4650
0.4632
0.4704
0.4829
0.4955
0.4991
0.4955
0.4847
0.4758
0.4722
0.4758
0.4865
0.5009
0.5099
0.5099
0.5009
0.4901
0.4847
0.4865
0.4973
0.5099
0.5189
0.5224
0.5171
0.5063
0.4973
0.4973
0.5063
0.5206
0.5332
0.5386
0.5368
0.5278
0.5171
0.5117
0.5171
0.5296
0.5440
0.5512
0.5494
0.5404
0.5296
0.5224
0.5242
0.5332
0.5458
0.5548
0.5548
0.5476
0.5332
0.5242
0.5224
0.5260
0.5368
0.5458
0.5476
0.5386
0.5242
0.5081
0.4991
0.4991
0.5045
0.5117
0.5135
0.5081
0.4937
0.4740
0.4596
0.4542
0.4578
0.4668
0.4704
0.4668
0.4524
0.4345
0.4201
0.4165
0.4201
0.4291
0.4399
0.4399
0.4327
0.4183
0.4039
0.3986
0.4004
0.4093
0.4219
0.4273
0.4255
0.4129
0.4004
0.3932
0.3932
0.4022
0.4147
0.4219
0.4219
0.4147
0.4022
0.3914
0.3896
0.3950
0.4093
0.4183
0.4219
0.4147
0.4039
0.3914
0.3860
0.3896
0.4022
0.4147
0.4201
0.4183
0.4075
0.3932
0.3878
0.3878
0.3986
0.4111
0.4201
0.4201
0.4129
0.4004
0.3914
0.3914
0.4004
0.4129
0.4237
0.4273
0.4219
0.4093
0.3968
0.3932
0.3986
0.4111
0.4237
0.4291
0.4273
0.4183
0.4057
0.3986
0.4004
0.4093
0.4237
0.4345
0.4345
0.4255
0.4111
0.4022
0.4022
0.4093
0.4219
0.4327
0.4363
0.4309
0.4183
0.4057
0.4039
0.4093
0.4219
0.4327
0.4399
0.4381
0.4291
0.4165
0.4093
0.4111
0.4201
0.4327
0.4434
0.4417
0.4327
0.4183
0.4093
0.4075
0.4129
0.4273
0.4381
0.4417
0.4345
0.4219
0.4111
0.4057
0.4111
0.4219
0.4345
0.4417
0.4381
0.4273
0.4147
0.4093
0.4129
0.4219
0.4345
0.4452
0.4452
0.4345
0.4219
0.4129
0.4129
0.4201
0.4327
0.4470
0.4506
0.4452
0.4291
0.4165
0.4111
0.4165
0.4273
0.4399
0.4470
0.4399
0.4309
0.4201
0.4129
0.4165
0.4273
0.4399
0.4506
0.4506
0.4399
0.4291
0.4201
0.4165
0.4237
0.4363
0.4470
0.4506
0.4452
0.4309
0.4201
0.4183
0.4273
0.4470
0.4650
0.4740
0.4740
0.4650
0.4524
0.4470
0.4506
0.4614
0.4758
0.4829
0.4829
0.4740
0.4614
0.4506
0.4470
0.4524
0.4632
0.4704
0.4686
0.4578
0.4399
0.4273
0.4219
0.4237
0.4327
0.4452
0.4506
0.4452
0.4327
0.4201
0.4147
0.4165
0.4291
0.4417
0.4506
0.4506
0.4381
0.4255
0.4165
0.4165
0.4255
0.4399
0.4542
0.4632
0.4650
0.4668
0.4740
0.4919
0.5224
0.5673
0.6230
0.6786
0.7289
0.7702
0.8043
0.8223
0.8205
0.7935
0.7325
0.6355
0.5135
0.3896
0.2962
0.2316
0.1957
0.1813
0.1795
0.1849
0.1903
0.1921
0.1957
0.2083
0.2334
0.2639
0.2962
0.3268
0.3501
0.3645
0.3698
0.3734
0.3806
0.3932
0.4111
0.4291
0.4417
0.4434
0.4345
0.4237
0.4183
0.4183
0.4291
0.4452
0.4578
0.4614
0.4560
0.4434
0.4327
0.4327
0.4381
0.4524
0.4650
0.4704
0.4686
0.4578
0.4452
0.4381
0.4452
0.4560
0.4704
0.4776
0.4776
0.4686
0.4560
0.4488
0.4488
0.4578
0.4722
0.4811
0.4847
0.4776
0.4650
0.4542
0.4524
0.4596
0.4722
0.4847
0.4901
0.4865
0.4758
0.4632
0.4596
0.4650
0.4758
0.4883
0.4973
0.4973
0.4883
0.4758
0.4704
0.4722
0.4829
0.4955
0.5063
0.5081
0.5027
0.4919
0.4829
0.4811
0.4901
0.5027
0.5153
0.5224
0.5189
0.5099
0.4991
0.4955
0.4991
0.5117
0.5260
0.5350
0.5332
0.5242
0.5135
0.5081
0.5081
0.5189
0.5314
0.5440
0.5458
0.5386
0.5260
0.5153
0.5135
0.5206
0.5332
0.5422
0.5458
0.5404
0.5260
0.5135
0.5063
0.5081
0.5171
0.5260
0.5278
0.5206
0.5081
0.4901
0.4794
0.4740
0.4758
0.4847
0.4883
0.4847
0.4704
0.4524
0.4363
0.4291
0.4309
0.4399
0.4506
0.4506
0.4399
0.4255
0.4129
0.4057
0.4093
0.4183
0.4291
0.4327
0.4291
0.4183
0.4039
0.3968
0.3968
0.4057
0.4183
0.4255
0.4255
0.4183
0.4039
0.3932
0.3914
0.3986
0.4111
0.4219
0.4237
0.4183
0.4057
0.3950
0.3896
0.3932
0.4039
0.4165
0.4219
0.4201
0.4093
0.3968
0.3896
0.3896
0.3986
0.4111
0.4201
0.4219
0.4147
0.4022
0.3932
0.3914
0.3986
0.4129
0.4237
0.4273
0.4237
0.4111
0.3986
0.3932
0.3986
0.4093
0.4237
0.4309
0.4273
0.4165
0.4057
0.3986
0.3986
0.4075
0.4201
0.4309
0.4309
0.4237
0.4111
0.4022
0.4004
0.4057
0.4201
0.4309
0.4345
0.4291
0.4165
0.4057
0.4022
0.4075
0.4201
0.4327
0.4399
0.4363
0.4255
0.4129
0.4057
0.4075
0.4165
0.4309
0.4381
0.4363
0.4291
0.4165
0.4075
0.4057
0.4147
0.4273
0.4399
0.4434
0.4345
0.4219
0.4111
0.4075
0.4111
0.4237
0.4363
0.4417
0.4381
0.4273
0.4147
0.4093
0.4111
0.4219
0.4363
0.4470
0.4470
0.4363
0.4219
0.4129
0.4111
0.4183
0.4309
0.4434
0.4470
0.4399
0.4273
0.4147
0.4111
0.4147
0.4273
0.4399
0.4470
0.4417
0.4291
0.4165
0.4111
0.4129
0.4219
0.4363
0.4470
0.4470
0.4363
0.4237
0.4147
0.4147
0.4219
0.4345
0.4488
0.4524
0.4452
0.4309
0.4201
0.4165
0.4219
0.4345
0.4470
0.4524
0.4488
0.4363
0.4237
0.4165
0.4183
0.4291
0.4434
0.4524
0.4506
0.4399
0.4255
0.4183
0.4183
0.4255
0.4399
0.4506
0.4542
0.4488
0.4345
0.4237
0.4201
0.4237
0.4345
0.4488
0.4542
0.4524
0.4381
0.4255
0.4201
0.4219
0.4327
0.4470
0.4560
0.4560
0.4470
0.4327
0.4219
0.4201
0.4273
0.4399
0.4524
0.4542
0.4488
0.4363
0.4237
0.4201
0.4255
0.4363
0.4506
0.4542
0.4506
0.4381
0.4255
0.4183
0.4201
0.4291
0.4452
0.4542
0.4542
0.4452
0.4309
0.4219
0.4201
0.4291
0.4452
0.4560
0.4578
0.4506
0.4363
0.4273
0.4255
0.4363
0.4560
0.4722
0.4794
0.4794
0.4722
0.4596
0.4542
0.4578
0.4686
0.4829
0.4901
0.4883
0.4776
0.4632
0.4506
0.4488
0.4542
0.4650
0.4704
0.4704
0.4596
0.4452
0.4309
0.4255
0.4291
0.4399
0.4524
0.4560
0.4524
0.4381
0.4255
0.4201
0.4219
0.4345
0.4488
0.4560
0.4542
0.4470
0.4327
0.4237
0.4237
0.4327
0.4542
0.4722
0.4847
0.4937
0.5009
0.5135
0.5404
0.5835
0.6427
0.7092
0.7702
0.8205
0.8438
0.8402
0.8133
0.7648
0.6912
0.5889
0.4740
0.3698
0.2890
0.2280
0.1903
0.1724
0.1724
0.1849
0.1993
0.2118
0.2244
0.2388
0.2549
0.2747
0.2998
0.3321
0.3591
0.3806
0.3914
0.3932
0.3932
0.3968
0.4057
0.4201
0.4345
0.4470
0.4470
0.4381
0.4255
0.4201
0.4219
0.4309
0.4470
0.4596
0.4614
0.4542
0.4417
0.4327
0.4309
0.4399
0.4542
0.4668
0.4704
0.4668
0.4560
0.4452
0.4381
0.4452
0.4578
0.4704
0.4758
0.4740
0.4650
0.4524
0.4452
0.4470
0.4560
0.4704
0.4794
0.4811
0.4740
0.4614
0.4524
0.4524
0.4578
0.4704
0.4811
0.4865
0.4829
0.4722
0.4614
0.4578
0.4650
0.4776
0.4901
0.4973
0.4955
0.4865
0.4740
0.4668
0.4704
0.4811
0.4937
0.5009
0.5027
0.4973
0.4865
0.4794
0.4776
0.4847
0.4973
0.5081
0.5135
0.5081
0.4973
0.4883
0.4847
0.4901
0.5027
0.5171
0.5242
0.5224
0.5153
0.5045
0.4991
0.5009
0.5117
0.5242
0.5314
0.5332
0.5242
0.5117
0.5027
0.5009
0.5081
0.5189
0.5296
0.5314
0.5260
0.5135
0.5009
0.4937
0.4955
0.5027
0.5135
0.5153
0.5081
0.4937
0.4776
0.4686
0.4650
0.4704
0.4776
0.4811
0.4776
0.4650
0.4488
0.4345
0.4291
0.4327
0.4434
0.4524
0.4524
0.4434
0.4273
0.4129
0.4075
0.4093
0.4201
0.4309
0.4345
0.4309
0.4201
0.4057
0.3968
0.3986
0.4057
0.4165
0.4237
0.4219
0.4129
0.4004
0.3914
0.3896
0.3968
0.4075
0.4183
0.4201
0.4129
0.4004
0.3896
0.3860
0.3914
0.4022
0.4147
0.4201
0.4165
0.4057
0.3932
0.3878
0.3896
0.4004
0.4111
0.4183
0.4201
0.4111
0.3986
0.3914
0.3896
0.3968
0.4075
0.4183
0.4219
0.4165
0.4057
0.3968
0.3914
0.3950
0.4057
0.4183
0.4237
0.4201
0.4111
0.4004
0.3950
0.3968
0.4057
0.4183
0.4273
0.4273
0.4183
0.4057
0.3968
0.3986
0.4057
0.4183
0.4273
0.4291
0.4237
0.4129
0.4022
0.3986
0.4039
0.4165
0.4291
0.4345
0.4309
0.4219
0.4093
0.4039
0.4057
0.4147
0.4273
0.4345
0.4345
0.4255
0.4111
0.4039
0.4039
0.4111
0.4237
0.4345
0.4381
0.4309
0.4183
0.4075
0.4039
0.4093
0.4201
0.4309
0.4363
0.4327
0.4219
0.4111
0.4057
0.4075
0.4183
0.4309
0.4399
0.4381
0.4291
0.4165
0.4075
0.4057
0.4129
0.4255
0.4363
0.4381
0.4309
0.4183
0.4093
0.4057
0.4093
0.4219
0.4345
0.4381
0.4345
0.4237
0.4129
0.4075
0.4093
0.4201
0.4309
0.4399
0.4399
0.4309
0.4183
0.4093
0.4093
0.4183
0.4309
0.4399
0.4452
0.4363
0.4237
0.4129
0.4093
0.4147
0.4255
0.4363
0.4399
0.4345
0.4237
0.4129
0.4075
0.4093
0.4201
0.4345
0.4399
0.4381
0.4291
0.4165
0.4093
0.4093
0.4147
0.4291
0.4381
0.4399
0.4327
0.4219
0.4111
0.4093
0.4165
0.4273
0.4381
0.4452
0.4381
0.4255
0.4147
0.4093
0.4129
0.4255
0.4434
0.4560
0.4596
0.4542
0.4452
0.4363
0.4381
0.4488
0.4632
0.4722
0.4740
0.4668
0.4560
0.4452
0.4381
0.4434
0.4524
0.4632
0.4650
0.4560
0.4399
0.4255
0.4183
0.4201
0.4273
0.4363
0.4434
0.4399
0.4291
0.4165
0.4093
0.4111
0.4183
0.4309
0.4399
0.4399
0.4327
0.4219
0.4111
0.4075
0.4129
0.4255
0.4381
0.4470
0.4488
0.4488
0.4524
0.4632
0.4883
0.5260
0.5727
0.6248
0.6732
0.7181
0.7612
0.7935
0.8115
0.8115
0.7810
0.7127
0.6050
0.4758
0.3573
0.2711
0.2190
0.1939
0.1867
0.1849
0.1849
0.1849
0.1849
0.1903
0.2083
0.2370
0.2711
0.3034
0.3285
0.3447
0.3519
0.3555
0.3609
0.3734
0.3914
0.4111
0.4237
0.4273
0.4237
0.4129
0.4057
0.4075
0.4147
0.4291
0.4417
0.4488
0.4434
0.4309
0.4219
0.4183
0.4237
0.4381
0.4524
0.4578
0.4560
0.4470
0.4327
0.4273
0.4291
0.4381
0.4542
0.4614
0.4614
0.4560
0.4452
0.4345
0.4327
0.4399
0.4560
0.4668
0.4704
0.4668
0.4542
0.4434
0.4381
0.4434
0.4560
0.4686
0.4758
0.4758
0.4668
0.4542
0.4488
0.4524
0.4632
0.4758
0.4829
0.4847
0.4776
0.4650
0.4578
0.4578
0.4650
0.4794
0.4901
0.4937
0.4901
0.4811
0.4704
0.4686
0.4722
0.4847
0.4973
0.5045
0.5027
0.4937
0.4847
0.4794
0.4829
0.4919
0.5063
0.5171
0.5189
0.5117
0.5009
0.4937
0.4937
0.5027
0.5153
0.5260
0.5296
0.5242
0.5135
0.5027
0.4991
0.5045
0.5153
0.5260
0.5314
0.5278
0.5189
0.5045
0.4955
0.4955
0.5027
0.5135
0.5189
0.5135
0.5009
0.4865
0.4740
0.4668
0.4686
0.4776
0.4829
0.4811
0.4686
0.4506
0.4327
0.4255
0.4255
0.4327
0.4434
0.4452
0.4363
0.4237
0.4093
0.4004
0.4004
0.4057
0.4165
0.4219
0.4201
0.4111
0.3968
0.3878
0.3842
0.3896
0.4022
0.4111
0.4111
0.4039
0.3932
0.3842
0.3788
0.3842
0.3950
0.4057
0.4111
0.4075
0.3968
0.3842
0.3770
0.3788
0.3878
0.3986
0.4075
0.4075
0.3986
0.3878
0.3788
0.3788
0.3860
0.3986
0.4093
0.4111
0.4057
0.3932
0.3824
0.3788
0.3842
0.3968
0.4075
0.4111
0.4075
0.3986
0.3878
0.3806
0.3842
0.3932
0.4057
0.4129
0.4129
0.4039
0.3914
0.3860
0.3860
0.3932
0.4057
0.4147
0.4183
0.4111
0.4004
0.3914
0.3878
0.3932
0.4057
0.4183
0.4237
0.4201
0.4093
0.3986
0.3932
0.3968
0.4057
0.4183
0.4255
0.4237
0.4165
0.4039
0.3950
0.3950
0.4022
0.4165
0.4255
0.4273
0.4219
0.4093
0.3986
0.3950
0.4004
0.4129
0.4237
0.4291
0.4255
0.4147
0.4039
0.3986
0.4022
0.4111
0.4237
0.4309
0.4291
0.4201
0.4075
0.4004
0.3986
0.4075
0.4201
0.4291
0.4309
0.4255
0.4129
0.4039
0.4004
0.4057
0.4165
0.4273
0.4327
0.4273
0.4165
0.4039
0.3986
0.4022
0.4111
0.4255
0.4327
0.4309
0.4219
0.4093
0.4022
0.4039
0.4111
0.4219
0.4327
0.4363
0.4291
0.4165
0.4057
0.4039
0.4093
0.4219
0.4345
0.4381
0.4345
0.4237
0.4111
0.4039
0.4057
0.4165
0.4291
0.4363
0.4345
0.4255
0.4147
0.4075
0.4075
0.4147
0.4255
0.4345
0.4363
0.4291
0.4165
0.4075
0.4057
0.4111
0.4273
0.4470
0.4578
0.4578
0.4488
0.4381
0.4345
0.4399
0.4524
0.4650
0.4722
0.4722
0.4650
0.4506
0.4381
0.4363
0.4452
0.4542
0.4614
0.4578
0.4488
0.4327
0.4201
0.4147
0.4165
0.4273
0.4363
0.4399
0.4327
0.4201
0.4075
0.4039
0.4057
0.4165
0.4309
0.4381
0.4363
0.4273
0.4147
0.4075
0.4075
0.4165
0.4291
0.4399
0.4470
0.4470
0.4452
0.4506
0.4668
0.4973
0.5386
0.5871
0.6373
0.6822
0.7217
0.7594
0.7917
0.8079
0.8007
0.7576
0.6768
0.5583
0.4273
0.3214
0.2496
0.2047
0.1867
0.1831
0.1831
0.1831
0.1813
0.1813
0.1903
0.2136
0.2424
0.2747
0.3052
0.3268
0.3411
0.3465
0.3501
0.3609
0.3788
0.3968
0.4147
0.4255
0.4273
0.4219
0.4111
0.4057
0.4093
0.4201
0.4345
0.4470
0.4470
0.4399
0.4273
0.4201
0.4183
0.4273
0.4399
0.4524
0.4578
0.4542
0.4417
0.4309
0.4273
0.4309
0.4434
0.4578
0.4650
0.4632
0.4542
0.4417
0.4345
0.4363
0.4488
0.4632
0.4722
0.4740
0.4668
0.4542
0.4452
0.4417
0.4506
0.4632
0.4758
0.4776
0.4740
0.4632
0.4524
0.4488
0.4542
0.4650
0.4776
0.4847
0.4829
0.4758
0.4650
0.4596
0.4614
0.4722
0.4865
0.4955
0.4973
0.4901
0.4794
0.4722
0.4722
0.4811
0.4937
0.5045
0.5099
0.5063
0.4973
0.4865
0.4829
0.4901
0.5027
0.5171
0.5224
0.5224
0.5153
0.5045
0.4991
0.5009
0.5099
0.5242
0.5332
0.5332
0.5260
0.5135
0.5063
0.5045
0.5099
0.5224
0.5332
0.5368
0.5314
0.5189
0.5063
0.5027
0.5045
0.5135
0.5206
0.5242
0.5189
0.5045
0.4883
0.4758
0.4722
0.4776
0.4847
0.4865
0.4829
0.4704
0.4524
0.4363
0.4291
0.4327
0.4399
0.4488
0.4470
0.4363
0.4201
0.4057
0.4004
0.4022
0.4111
0.4219
0.4255
0.4201
0.4093
0.3968
0.3896
0.3896
0.3986
0.4093
0.4165
0.4147
0.4075
0.3950
0.3860
0.3842
0.3914
0.4039
0.4129
0.4147
0.4093
0.3986
0.3878
0.3842
0.3878
0.3986
0.4093
0.4147
0.4111
0.4004
0.3878
0.3806
0.3824
0.3914
0.4039
0.4129
0.4129
0.4039
0.3914
0.3842
0.3842
0.3896
0.4022
0.4129
0.4165
0.4111
0.4004
0.3896
0.3878
0.3932
0.4057
0.4165
0.4219
0.4183
0.4093
0.3968
0.3896
0.3932
0.4022
0.4165
0.4237
0.4219
0.4147
0.4039
0.3968
0.3968
0.4039
0.4165
0.4273
0.4291
0.4237
0.4111
0.4022
0.3986
0.4039
0.4165
0.4291
0.4345
0.4327
0.4219
0.4093
0.4039
0.4075
0.4165
0.4291
0.4363
0.4363
0.4273
0.4147
0.4057
0.4057
0.4129
0.4255
0.4363
0.4381
0.4327
0.4201
0.4093
0.4057
0.4111
0.4237
0.4345
0.4399
0.4363
0.4237
0.4129
0.4057
0.4093
0.4183
0.4309
0.4399
0.4381
0.4291
0.4165
0.4093
0.4093
0.4183
0.4309
0.4399
0.4417
0.4327
0.4201
0.4093
0.4075
0.4147
0.4255
0.4381
0.4434
0.4399
0.4291
0.4165
0.4111
0.4129
0.4219
0.4363
0.4452
0.4417
0.4327
0.4201
0.4129
0.4111
0.4201
0.4327
0.4452
0.4452
0.4381
0.4255
0.4147
0.4129
0.4183
0.4291
0.4417
0.4488
0.4452
0.4327
0.4201
0.4147
0.4183
0.4273
0.4399
0.4488
0.4488
0.4381
0.4237
0.4147
0.4147
0.4237
0.4363
0.4470
0.4470
0.4381
0.4255
0.4147
0.4129
0.4183
0.4309
0.4434
0.4488
0.4417
0.4309
0.4183
0.4147
0.4165
0.4273
0.4399
0.4488
0.4470
0.4363
0.4237
0.4165
0.4165
0.4255
0.4381
0.4488
0.4506
0.4417
0.4291
0.4183
0.4147
0.4201
0.4327
0.4452
0.4488
0.4452
0.4345
0.4219
0.4147
0.4183
0.4291
0.4452
0.4506
0.4488
0.4363
0.4237
0.4165
0.4165
0.4255
0.4381
0.4506
0.4524
0.4470
0.4327
0.4219
0.4183
0.4255
0.4363
0.4506
0.4560
0.4524
0.4381
0.4255
0.4201
0.4237
0.4345
0.4488
0.4542
0.4542
0.4452
0.4309
0.4219
0.4219
0.4291
0.4434
0.4542
0.4542
0.4470
0.4327
0.4219
0.4183
0.4237
0.4381
0.4506
0.4560
0.4506
0.4381
0.4273
0.4219
0.4255
0.4381
0.4524
0.4578
0.4560
0.4470
0.4309
0.4237
0.4237
0.4345
0.4488
0.4578
0.4578
0.4506
0.4363
0.4255
0.4219
0.4291
0.4452
0.4560
0.4578
0.4524
0.4381
0.4273
0.4219
0.4255
0.4363
0.4506
0.4560
0.4542
0.4417
0.4291
0.4219
0.4237
0.4309
0.4470
0.4560
0.4578
0.4488
0.4345
0.4255
0.4237
0.4309
0.4452
0.4560
0.4596
0.4542
0.4399
0.4273
0.4237
0.4291
0.4399
0.4542
0.4614
0.4578
0.4470
0.4327
0.4237
0.4255
0.4345
0.4506
0.4578
0.4596
0.4506
0.4363
0.4273
0.4255
0.4309
0.4452
0.4560
0.4596
0.4542
0.4399
0.4291
0.4237
0.4273
0.4399
0.4542
0.4614
0.4578
0.4488
0.4345
0.4273
0.4291
0.4381
0.4524
0.4596
0.4560
0.4470
0.4327
0.4237
0.4219
0.4309
0.4470
0.4578
0.4614
0.4560
0.4417
0.4291
0.4237
0.4273
0.4381
0.4524
0.4596
0.4578
0.4470
0.4345
0.4291
0.4327
0.4452
0.4578
0.4668
0.4668
0.4596
0.4452
0.4309
0.4273
0.4345
0.4506
0.4614
0.4650
0.4614
0.4488
0.4345
0.4273
0.4309
0.4417
0.4542
0.4596
0.4560
0.4452
0.4309
0.4237
0.4255
0.4363
0.4506
0.4614
0.4614
0.4542
0.4399
0.4327
0.4363
0.4524
0.4740
0.4991
0.5189
0.5368
0.5548
0.5817
0.6248
0.6840
0.7522
0.8187
0.8654
0.8779
0.8582
0.8025
0.7145
0.6050
0.4901
0.3932
0.3214
0.2657
0.2226
0.1903
0.1724
0.1706
0.1849
0.2101
0.2406
0.2711
0.2908
0.3034
0.3124
0.3285
0.3483
0.3734
0.4004
0.4183
0.4255
0.4237
0.4165
0.4129
0.4183
0.4327
0.4488
0.4596
0.4614
0.4542
0.4399
0.4327
0.4309
0.4399
0.4560
0.4668
0.4686
0.4650
0.4560
0.4434
0.4381
0.4452
0.4578
0.4704
0.4758
0.4740
0.4632
0.4506
0.4417
0.4452
0.4542
0.4686
0.4776
0.4776
0.4704
0.4578
0.4488
0.4488
0.4578
0.4722
0.4829
0.4865
0.4811
0.4704
0.4596
0.4560
0.4614
0.4722
0.4829
0.4883
0.4865
0.4776
0.4668
0.4596
0.4614
0.4722
0.4847
0.4937
0.4937
0.4847
0.4740
0.4650
0.4650
0.4740
0.4865
0.4991
0.5027
0.4973
0.4847
0.4758
0.4740
0.4794
0.4919
0.5045
0.5117
0.5081
0.4991
0.4883
0.4829
0.4865
0.4955
0.5081
0.5171
0.5171
0.5099
0.4973
0.4901
0.4883
0.4973
0.5099
0.5189
0.5224
0.5153
0.5027
0.4919
0.4883
0.4937
0.5045
0.5153
0.5189
0.5135
0.5027
0.4883
0.4829
0.4829
0.4919
0.5027
0.5081
0.5063
0.4955
0.4811
0.4686
0.4650
0.4704
0.4794
0.4847
0.4829
0.4740
0.4578
0.4399
0.4327
0.4345
0.4452
0.4542
0.4560
0.4506
0.4345
0.4219
0.4129
0.4129
0.4219
0.4327
0.4399
0.4363
0.4255
0.4129
0.4022
0.4022
0.4075
0.4201
0.4291
0.4309
0.4237
0.4111
0.4004
0.3968
0.4022
0.4147
0.4255
0.4291
0.4237
0.4129
0.4004
0.3950
0.3968
0.4075
0.4201
0.4255
0.4237
0.4147
0.4039
0.3968
0.3968
0.4039
0.4165
0.4273
0.4291
0.4219
0.4111
0.4004
0.3968
0.4022
0.4147
0.4291
0.4345
0.4309
0.4183
0.4075
0.4022
0.4057
0.4147
0.4273
0.4345
0.4345
0.4255
0.4129
0.4039
0.4057
0.4129
0.4273
0.4363
0.4381
0.4309
0.4201
0.4093
0.4057
0.4111
0.4237
0.4363
0.4399
0.4363
0.4237
0.4129
0.4075
0.4093
0.4201
0.4345
0.4417
0.4399
0.4309
0.4183
0.4129
0.4129
0.4219
0.4327
0.4452
0.4470
0.4381
0.4255
0.4147
0.4111
0.4183
0.4309
0.4452
0.4488
0.4452
0.4309
0.4201
0.4147
0.4165
0.4273
0.4399
0.4488
0.4470
0.4345
0.4219
0.4147
0.4147
0.4237
0.4363
0.4488
0.4506
0.4417
0.4273
0.4183
0.4147
0.4201
0.4309
0.4452
0.4506
0.4452
0.4327
0.4201
0.4165
0.4201
0.4309
0.4452
0.4524
0.4506
0.4381
0.4255
0.4183
0.4183
0.4255
0.4399
0.4506
0.4524
0.4452
0.4309
0.4219
0.4183
0.4255
0.4381
0.4506
0.4542
0.4488
0.4345
0.4237
0.4183
0.4201
0.4309
0.4470
0.4542
0.4524
0.4399
0.4273
0.4201
0.4201
0.4291
0.4452
0.4542
0.4542
0.4470
0.4327
0.4219
0.4201
0.4273
0.4417
0.4524
0.4560
0.4506
0.4363
0.4237
0.4183
0.4219
0.4327
0.4488
0.4542
0.4524
0.4399
0.4255
0.4183
0.4183
0.4273
0.4399
0.4524
0.4524
0.4452
0.4309
0.4201
0.4183
0.4255
0.4381
0.4506
0.4542
0.4506
0.4363
0.4237
0.4183
0.4219
0.4345
0.4488
0.4542
0.4542
0.4434
0.4291
0.4201
0.4201
0.4309
0.4452
0.4542
0.4542
0.4470
0.4327
0.4219
0.4201
0.4255
0.4399
0.4524
0.4560
0.4506
0.4363
0.4255
0.4219
0.4237
0.4345
0.4488
0.4560
0.4542
0.4434
0.4291
0.4219
0.4237
0.4327
0.4488
0.4560
0.4578
0.4488
0.4345
0.4237
0.4219
0.4273
0.4399
0.4524
0.4560
0.4506
0.4363
0.4255
0.4219
0.4255
0.4363
0.4506
0.4578
0.4542
0.4417
0.4273
0.4219
0.4219
0.4309
0.4452
0.4542
0.4542
0.4470
0.4309
0.4219
0.4219
0.4309
0.4452
0.4560
0.4560
0.4488
0.4345
0.4219
0.4183
0.4237
0.4363
0.4506
0.4560
0.4542
0.4452
0.4309
0.4237
0.4237
0.4309
0.4452
0.4560
0.4560
0.4488
0.4345
0.4273
0.4255
0.4327
0.4488
0.4614
0.4650
0.4596
0.4470
0.4327
0.4273
0.4327
0.4452
0.4560
0.4614
0.4596
0.4488
0.4327
0.4255
0.4273
0.4363
0.4488
0.4560
0.4560
0.4488
0.4327
0.4237
0.4219
0.4309
0.4452
0.4560
0.4596
0.4524
0.4399
0.4291
0.4273
0.4381
0.4596
0.4847
0.5063
0.5242
0.5386
0.5601
0.5961
0.6499
0.7127
0.7774
0.8348
0.8654
0.8600
0.8205
0.7487
0.6499
0.5368
0.4309
0.3537
0.2944
0.2496
0.2118
0.1849
0.1724
0.1777
0.1957
0.2226
0.2496
0.2711
0.2855
0.2944
0.3070
0.3268
0.3537
0.3824
0.4057
0.4201
0.4201
0.4147
0.4129
0.4147
0.4237
0.4381
0.4542
0.4596
0.4560
0.4434
0.4327
0.4291
0.4363
0.4506
0.4632
0.4704
0.4686
0.4596
0.4470
0.4381
0.4417
0.4542
0.4686
0.4758
0.4758
0.4686
0.4560
0.4470
0.4452
0.4524
0.4668
0.4776
0.4794
0.4740
0.4614
0.4524
0.4488
0.4542
0.4668
0.4794
0.4847
0.4811
0.4704
0.4578
0.4524
0.4560
0.4668
0.4811
0.4883
0.4883
0.4794
0.4668
0.4596
0.4596
0.4686
0.4811
0.4919
0.4937
0.4901
0.4794
0.4686
0.4650
0.4704
0.4829
0.4955
0.5009
0.4973
0.4883
0.4758
0.4722
0.4740
0.4847
0.4991
0.5081
0.5081
0.5009
0.4901
0.4829
0.4847
0.4919
0.5063
0.5171
0.5206
0.5153
0.5045
0.4955
0.4937
0.5009
0.5135
0.5242
0.5296
0.5260
0.5153
0.5027
0.4973
0.4991
0.5081
0.5206
0.5278
0.5260
0.5153
0.5009
0.4919
0.4901
0.4955
0.5063
0.5153
0.5153
0.5045
0.4883
0.4758
0.4686
0.4704
0.4758
0.4847
0.4847
0.4758
0.4596
0.4399
0.4309
0.4309
0.4381
0.4488
0.4524
0.4488
0.4345
0.4201
0.4093
0.4057
0.4111
0.4237
0.4309
0.4309
0.4219
0.4075
0.3968
0.3932
0.3986
0.4093
0.4201
0.4237
0.4183
0.4075
0.3950
0.3896
0.3914
0.4004
0.4129
0.4183
0.4183
0.4093
0.3968
0.3878
0.3878
0.3968
0.4075
0.4165
0.4183
0.4111
0.3986
0.3896
0.3860
0.3914
0.4039
0.4147
0.4183
0.4147
0.4057
0.3932
0.3878
0.3914
0.4004
0.4129
0.4201
0.4183
0.4093
0.3968
0.3896
0.3896
0.3986
0.4111
0.4201
0.4219
0.4165
0.4057
0.3950
0.3950
0.4004
0.4129
0.4219
0.4273
0.4237
0.4129
0.4004
0.3950
0.3986
0.4111
0.4237
0.4309
0.4309
0.4219
0.4093
0.4004
0.4022
0.4093
0.4237
0.4327
0.4327
0.4255
0.4129
0.4022
0.4004
0.4057
0.4183
0.4309
0.4345
0.4291
0.4183
0.4075
0.4039
0.4075
0.4183
0.4309
0.4381
0.4363
0.4255
0.4129
0.4057
0.4075
0.4165
0.4291
0.4399
0.4399
0.4327
0.4183
0.4075
0.4039
0.4111
0.4237
0.4345
0.4381
0.4327
0.4219
0.4093
0.4039
0.4075
0.4183
0.4327
0.4399
0.4363
0.4255
0.4129
0.4057
0.4075
0.4147
0.4273
0.4363
0.4381
0.4327
0.4201
0.4093
0.4075
0.4147
0.4273
0.4381
0.4417
0.4363
0.4237
0.4129
0.4075
0.4111
0.4237
0.4363
0.4452
0.4399
0.4309
0.4183
0.4111
0.4111
0.4183
0.4327
0.4417
0.4417
0.4327
0.4219
0.4129
0.4111
0.4165
0.4273
0.4399
0.4470
0.4399
0.4273
0.4165
0.4111
0.4165
0.4273
0.4399
0.4488
0.4470
0.4345
0.4219
0.4129
0.4129
0.4219
0.4345
0.4452
0.4452
0.4363
0.4237
0.4129
0.4111
0.4165
0.4291
0.4399
0.4452
0.4381
0.4255
0.4147
0.4111
0.4129
0.4237
0.4381
0.4470
0.4434
0.4309
0.4183
0.4111
0.4129
0.4219
0.4345
0.4470
0.4470
0.4363
0.4237
0.4147
0.4129
0.4201
0.4327
0.4452
0.4488
0.4434
0.4309
0.4183
0.4147
0.4183
0.4291
0.4417
0.4488
0.4452
0.4309
0.4165
0.4093
0.4093
0.4201
0.4345
0.4452
0.4470
0.4363
0.4255
0.4165
0.4147
0.4201
0.4309
0.4417
0.4470
0.4399
0.4291
0.4165
0.4147
0.4201
0.4327
0.4470
0.4542
0.4524
0.4417
0.4291
0.4219
0.4219
0.4291
0.4434
0.4506
0.4506
0.4399
0.4273
0.4183
0.4165
0.4219
0.4345
0.4452
0.4470
0.4381
0.4273
0.4165
0.4129
0.4165
0.4273
0.4399
0.4488
0.4470
0.4363
0.4255
0.4201
0.4219
0.4363
0.4578
0.4740
0.4865
0.4937
0.5009
0.5189
0.5512
0.6014
0.6643
0.7289
0.7864
0.8276
0.8402
0.8276
0.7899
0.7271
0.6355
0.5260
0.4183
0.3339
0.2675
0.2208
0.1921
0.1795
0.1795
0.1939
0.2101
0.2226
0.2352
0.2478
0.2639
0.2837
0.3124
0.3411
0.3680
0.3860
0.3950
0.3968
0.3968
0.4004
0.4111
0.4255
0.4399
0.4488
0.4488
0.4381
0.4273
0.4219
0.4255
0.4363
0.4524
0.4596
0.4596
0.4506
0.4381
0.4309
0.4309
0.4417
0.4578
0.4686
0.4722
0.4650
0.4542
0.4434
0.4399
0.4470
0.4578
0.4704
0.4758
0.4722
0.4632
0.4506
0.4452
0.4488
0.4596
0.4722
0.4811
0.4811
0.4740
0.4614
0.4524
0.4524
0.4614
0.4740
0.4847
0.4865
0.4794
0.4686
0.4596
0.4578
0.4614
0.4740
0.4847
0.4919
0.4883
0.4794
0.4686
0.4650
0.4686
0.4776
0.4901
0.4973
0.4991
0.4919
0.4811
0.4740
0.4740
0.4829
0.4973
0.5081
0.5099
0.5045
0.4937
0.4847
0.4829
0.4901
0.5027
0.5153
0.5206
0.5171
0.5081
0.4973
0.4919
0.4955
0.5081
0.5206
0.5278
0.5296
0.5206
0.5099
0.5009
0.5009
0.5081
0.5206
0.5296
0.5332
0.5260
0.5135
0.5027
0.4973
0.5027
0.5117
0.5189
0.5206
0.5153
0.5009
0.4865
0.4776
0.4758
0.4811
0.4883
0.4901
0.4865
0.4740
0.4560
0.4399
0.4345
0.4399
0.4506
0.4560
0.4524
0.4399
0.4237
0.4111
0.4057
0.4093
0.4183
0.4273
0.4309
0.4237
0.4129
0.3986
0.3914
0.3950
0.4039
0.4147
0.4201
0.4201
0.4093
0.3968
0.3896
0.3896
0.3968
0.4075
0.4165
0.4165
0.4111
0.3986
0.3878
0.3860
0.3896
0.4022
0.4129
0.4147
0.4111
0.3986
0.3878
0.3824
0.3842
0.3950
0.4075
0.4147
0.4129
0.4039
0.3932
0.3860
0.3860
0.3932
0.4057
0.4147
0.4183
0.4111
0.3986
0.3896
0.3878
0.3950
0.4075
0.4183
0.4219
0.4201
0.4093
0.3986
0.3914
0.3950
0.4039
0.4183
0.4255
0.4237
0.4147
0.4039
0.3950
0.3950
0.4039
0.4183
0.4273
0.4291
0.4219
0.4093
0.4004
0.3986
0.4039
0.4147
0.4273
0.4309
0.4273
0.4165
0.4057
0.4004
0.4039
0.4165
0.4309
0.4363
0.4345
0.4273
0.4147
0.4057
0.4057
0.4147
0.4255
0.4345
0.4345
0.4273
0.4165
0.4057
0.4022
0.4093
0.4219
0.4345
0.4381
0.4327
0.4219
0.4093
0.4039
0.4075
0.4165
0.4291
0.4363
0.4345
0.4255
0.4129
0.4057
0.4075
0.4165
0.4309
0.4381
0.4399
0.4327
0.4201
0.4093
0.4075
0.4147
0.4273
0.4381
0.4434
0.4381
0.4255
0.4147
0.4111
0.4129
0.4237
0.4363
0.4434
0.4399
0.4291
0.4147
0.4075
0.4075
0.4165
0.4291
0.4399
0.4399
0.4327
0.4201
0.4093
0.4093
0.4147
0.4273
0.4399
0.4452
0.4399
0.4291
0.4183
0.4129
0.4147
0.4237
0.4363
0.4452
0.4417
0.4309
0.4183
0.4111
0.4147
0.4291
0.4488
0.4614
0.4650
0.4596
0.4470
0.4363
0.4363
0.4434
0.4560
0.4668
0.4704
0.4650
0.4524
0.4363
0.4309
0.4327
0.4417
0.4524
0.4578
0.4542
0.4399
0.4273
0.4183
0.4165
0.4237
0.4345
0.4452
0.4434
0.4345
0.4201
0.4111
0.4093
0.4165
0.4291
0.4399
0.4434
0.4363
0.4273
0.4165
0.4111
0.4165
0.4291
0.4470
0.4578
0.4668
0.4704
0.4758
0.4919
0.5189
0.5583
0.6122
0.6715
0.7253
0.7702
0.7989
0.8097
0.7953
0.7558
0.6858
0.5925
0.4829
0.3788
0.2944
0.2352
0.1993
0.1849
0.1813
0.1885
0.1975
0.2047
0.2083
0.2154
0.2316
0.2567
0.2855
0.3160
0.3429
0.3609
0.3680
0.3716
0.3770
0.3860
0.4004
0.4183
0.4327
0.4399
0.4381
0.4273
0.4183
0.4165
0.4237
0.4363
0.4506
0.4578
0.4578
0.4488
0.4363
0.4291
0.4327
0.4434
0.4560
0.4650
0.4668
0.4614
0.4488
0.4381
0.4363
0.4452
0.4596
0.4704
0.4740
0.4704
0.4578
0.4488
0.4452
0.4506
0.4614
0.4740
0.4794
0.4776
0.4668
0.4560
0.4506
0.4542
0.4632
0.4776
0.4865
0.4865
0.4776
0.4668
0.4596
0.4578
0.4668
0.4794
0.4901
0.4937
0.4901
0.4794
0.4686
0.4668
0.4704
0.4829
0.4955
0.5027
0.4991
0.4901
0.4794
0.4758
0.4794
0.4901
0.5045
0.5135
0.5153
0.5063
0.4955
0.4901
0.4901
0.4991
0.5117
0.5242
0.5296
0.5260
0.5171
0.5063
0.5045
0.5117
0.5242
0.5350
0.5422
0.5386
0.5296
0.5189
0.5135
0.5153
0.5242
0.5368
0.5440
0.5422
0.5332
0.5206
0.5099
0.5081
0.5117
0.5224
0.5296
0.5278
0.5189
0.5027
0.4883
0.4794
0.4776
0.4847
0.4919
0.4919
0.4829
0.4668
0.4488
0.4363
0.4345
0.4399
0.4506
0.4542
0.4506
0.4363
0.4201
0.4093
0.4057
0.4111
0.4201
0.4273
0.4273
0.4201
0.4075
0.3950
0.3896
0.3932
0.4039
0.4147
0.4183
0.4147
0.4039
0.3914
0.3860
0.3860
0.3968
0.4093
0.4183
0.4165
0.4075
0.3932
0.3842
0.3842
0.3932
0.4057
0.4147
0.4147
0.4093
0.3968
0.3878
0.3842
0.3896
0.4004
0.4129
0.4183
0.4147
0.4039
0.3914
0.3860
0.3878
0.3968
0.4111
0.4183
0.4165
0.4075
0.3968
0.3878
0.3878
0.3950
0.4093
0.4201
0.4219
0.4147
0.4039
0.3932
0.3914
0.3968
0.4075
0.4201
0.4255
0.4237
0.4129
0.4004
0.3950
0.3986
0.4093
0.4219
0.4291
0.4291
0.4201
0.4075
0.4004
0.4004
0.4075
0.4219
0.4309
0.4327
0.4255
0.4129
0.4039
0.4004
0.4057
0.4183
0.4309
0.4363
0.4327
0.4219
0.4093
0.4057
0.4075
0.4165
0.4273
0.4345
0.4345
0.4255
0.4147
0.4075
0.4075
0.4183
0.4309
0.4399
0.4434
0.4345
0.4237
0.4129
0.4111
0.4165
0.4273
0.4381
0.4434
0.4381
0.4291
0.4165
0.4093
0.4129
0.4237
0.4363
0.4434
0.4399
0.4309
0.4183
0.4111
0.4111
0.4201
0.4327
0.4452
0.4452
0.4363
0.4237
0.4129
0.4111
0.4165
0.4291
0.4417
0.4506
0.4524
0.4470
0.4363
0.4363
0.4417
0.4560
0.4686
0.4776
0.4776
0.4704
0.4578
0.4506
0.4524
0.4596
0.4704
0.4776
0.4758
0.4632
0.4470
0.4327
0.4255
0.4291
0.4399
0.4506
0.4524
0.4452
0.4309
0.4165
0.4129
0.4165
0.4273
0.4399
0.4470
0.4452
0.4345
0.4219
0.4129
0.4147
0.4237
0.4363
0.4452
0.4488
0.4399
0.4309
0.4273
0.4345
0.4578
0.4883
0.5206
0.5512
0.5799
0.6140
0.6517
0.6966
0.7504
0.8061
0.8420
0.8438
0.8043
0.7181
0.5996
0.4722
0.3662
0.2980
0.2567
0.2316
0.2101
0.1885
0.1688
0.1598
0.1652
0.1849
0.2190
0.2531
0.2783
0.2944
0.3034
0.3106
0.3232
0.3465
0.3752
0.4022
0.4219
0.4273
0.4219
0.4147
0.4093
0.4129
0.4255
0.4399
0.4524
0.4560
0.4488
0.4363
0.4273
0.4255
0.4327
0.4488
0.4614
0.4668
0.4632
0.4524
0.4399
0.4363
0.4434
0.4560
0.4704
0.4776
0.4758
0.4650
0.4524
0.4452
0.4470
0.4578
0.4722
0.4811
0.4811
0.4758
0.4632
0.4542
0.4542
0.4614
0.4740
0.4847
0.4883
0.4847
0.4740
0.4632
0.4596
0.4632
0.4758
0.4883
0.4955
0.4955
0.4865
0.4758
0.4686
0.4722
0.4829
0.4973
0.5063
0.5063
0.4991
0.4883
0.4794
0.4794
0.4865
0.5009
0.5135
0.5171
0.5135
0.5045
0.4955
0.4919
0.4973
0.5099
0.5242
0.5314
0.5314
0.5224
0.5135
0.5081
0.5117
0.5224
0.5368
0.5476
0.5494
0.5422
0.5314
0.5224
0.5224
0.5296
0.5422
0.5530
0.5566
0.5530
0.5422
0.5296
0.5242
0.5278
0.5368
0.5476
0.5512
0.5458
0.5332
0.5171
0.5045
0.5009
0.5045
0.5117
0.5153
0.5081
0.4937
0.4740
0.4614
0.4542
0.4560
0.4632
0.4686
0.4686
0.4578
0.4399
0.4255
0.4165
0.4165
0.4237
0.4327
0.4363
0.4309
0.4183
0.4039
0.3968
0.3986
0.4057
0.4183
0.4237
0.4219
0.4147
0.4004
0.3896
0.3878
0.3950
0.4075
0.4165
0.4183
0.4093
0.3968
0.3878
0.3824
0.3878
0.3986
0.4111
0.4147
0.4111
0.4004
0.3896
0.3824
0.3860
0.3932
0.4057
0.4129
0.4147
0.4075
0.3932
0.3842
0.3842
0.3932
0.4057
0.4147
0.4183
0.4111
0.4004
0.3878
0.3860
0.3896
0.4022
0.4129
0.4183
0.4165
0.4075
0.3950
0.3878
0.3914
0.4004
0.4129
0.4219
0.4219
0.4129
0.4004
0.3914
0.3914
0.3986
0.4093
0.4201
0.4237
0.4183
0.4057
0.3968
0.3950
0.4004
0.4129
0.4255
0.4309
0.4273
0.4183
0.4057
0.4004
0.4022
0.4129
0.4255
0.4327
0.4309
0.4237
0.4111
0.4039
0.4039
0.4111
0.4237
0.4363
0.4363
0.4309
0.4183
0.4075
0.4039
0.4093
0.4201
0.4327
0.4381
0.4345
0.4237
0.4111
0.4057
0.4093
0.4183
0.4309
0.4399
0.4381
0.4291
0.4165
0.4093
0.4075
0.4165
0.4309
0.4399
0.4434
0.4363
0.4237
0.4129
0.4093
0.4147
0.4255
0.4381
0.4417
0.4363
0.4255
0.4147
0.4093
0.4111
0.4219
0.4345
0.4452
0.4417
0.4327
0.4201
0.4111
0.4111
0.4183
0.4309
0.4417
0.4470
0.4381
0.4255
0.4147
0.4129
0.4183
0.4309
0.4434
0.4488
0.4452
0.4327
0.4201
0.4147
0.4165
0.4255
0.4381
0.4470
0.4452
0.4327
0.4201
0.4111
0.4129
0.4237
0.4452
0.4614
0.4668
0.4632
0.4524
0.4434
0.4399
0.4470
0.4596
0.4740
0.4794
0.4776
0.4668
0.4524
0.4452
0.4470
0.4560
0.4650
0.4686
0.4650
0.4542
0.4363
0.4255
0.4219
0.4273
0.4381
0.4470
0.4470
0.4363
0.4255
0.4147
0.4111
0.4165
0.4273
0.4381
0.4452
0.4381
0.4273
0.4165
0.4111
0.4129
0.4237
0.4381
0.4506
0.4578
0.4596
0.4632
0.4740
0.4991
0.5332
0.5799
0.6338
0.6876
0.7361
0.7792
0.8115
0.8241
0.8151
0.7774
0.7002
0.5961
0.4758
0.3609
0.2747
0.2172
0.1867
0.1777
0.1777
0.1795
0.1831
0.1831
0.1867
0.2011
0.2262
0.2585
0.2926
0.3214
0.3411
0.3537
0.3573
0.3645
0.3752
0.3914
0.4093
0.4255
0.4345
0.4327
0.4237
0.4147
0.4111
0.4165
0.4291
0.4452
0.4524
0.4542
0.4452
0.4327
0.4255
0.4255
0.4345
0.4506
0.4614
0.4614
0.4560
0.4417
0.4327
0.4309
0.4381
0.4542
0.4668
0.4722
0.4686
0.4560
0.4452
0.4399
0.4470
0.4560
0.4686
0.4776
0.4758
0.4668
0.4542
0.4488
0.4506
0.4614
0.4740
0.4829
0.4847
0.4776
0.4650
0.4560
0.4542
0.4614
0.4758
0.4883
0.4919
0.4883
0.4794
0.4686
0.4650
0.4686
0.4811
0.4937
0.5009
0.5009
0.4919
0.4811
0.4740
0.4758
0.4865
0.5009
0.5099
0.5117
0.5063
0.4955
0.4865
0.4865
0.4955
0.5099
0.5206
0.5260
0.5242
0.5135
0.5045
0.5009
0.5063
0.5189
0.5314
0.5368
0.5368
0.5278
0.5171
0.5099
0.5117
0.5189
0.5314
0.5386
0.5386
0.5296
0.5153
0.5045
0.5009
0.5063
0.5153
0.5242
0.5260
0.5171
0.5027
0.4865
0.4794
0.4794
0.4847
0.4919
0.4919
0.4847
0.4704
0.4506
0.4363
0.4345
0.4381
0.4488
0.4542
0.4506
0.4381
0.4219
0.4093
0.4057
0.4093
0.4201
0.4291
0.4309
0.4219
0.4093
0.3968
0.3914
0.3950
0.4057
0.4165
0.4219
0.4183
0.4075
0.3950
0.3878
0.3878
0.3968
0.4093
0.4165
0.4165
0.4093
0.3968
0.3878
0.3860
0.3932
0.4057
0.4165
0.4183
0.4129
0.4022
0.3896
0.3860
0.3896
0.4004
0.4111
0.4165
0.4129
0.4039
0.3932
0.3860
0.3878
0.3968
0.4093
0.4165
0.4165
0.4093
0.3968
0.3896
0.3896
0.3950
0.4075
0.4183
0.4219
0.4183
0.4057
0.3968
0.3932
0.3986
0.4093
0.4219
0.4273
0.4255
0.4147
0.4022
0.3968
0.3986
0.4093
0.4219
0.4309
0.4291
0.4219
0.4111
0.4022
0.4004
0.4075
0.4201
0.4309
0.4345
0.4273
0.4165
0.4057
0.4022
0.4057
0.4165
0.4291
0.4345
0.4309
0.4219
0.4093
0.4039
0.4075
0.4165
0.4291
0.4381
0.4381
0.4291
0.4165
0.4075
0.4075
0.4147
0.4273
0.4381
0.4399
0.4345
0.4237
0.4129
0.4093
0.4129
0.4237
0.4363
0.4434
0.4381
0.4273
0.4147
0.4075
0.4093
0.4183
0.4327
0.4417
0.4417
0.4327
0.4201
0.4111
0.4111
0.4183
0.4309
0.4434
0.4470
0.4381
0.4273
0.4165
0.4129
0.4165
0.4291
0.4399
0.4470
0.4452
0.4327
0.4183
0.4129
0.4129
0.4237
0.4363
0.4452
0.4434
0.4327
0.4201
0.4111
0.4111
0.4201
0.4327
0.4452
0.4488
0.4399
0.4273
0.4165
0.4147
0.4201
0.4309
0.4434
0.4488
0.4470
0.4345
0.4219
0.4165
0.4183
0.4291
0.4417
0.4506
0.4506
0.4399
0.4255
0.4165
0.4147
0.4219
0.4363
0.4470
0.4488
0.4399
0.4273
0.4165
0.4147
0.4201
0.4309
0.4452
0.4506
0.4470
0.4345
0.4219
0.4147
0.4165
0.4255
0.4381
0.4488
0.4488
0.4381
0.4255
0.4165
0.4165
0.4255
0.4381
0.4506
0.4524
0.4452
0.4309
0.4201
0.4165
0.4219
0.4327
0.4470
0.4506
0.4470
0.4345
0.4219
0.4147
0.4183
0.4291
0.4434
0.4524
0.4506
0.4399
0.4273
0.4183
0.4183
0.4255
0.4399
0.4524
0.4542
0.4488
0.4345
0.4255
0.4255
0.4363
0.4542
0.4686
0.4776
0.4758
0.4650
0.4542
0.4488
0.4524
0.4614
0.4740
0.4794
0.4776
0.4686
0.4524
0.4399
0.4363
0.4434
0.4560
0.4632
0.4650
0.4560
0.4399
0.4273
0.4237
0.4255
0.4363
0.4488
0.4524
0.4470
0.4345
0.4219
0.4183
0.4219
0.4309
0.4452
0.4524
0.4524
0.4399
0.4273
0.4201
0.4219
0.4327
0.4542
0.4740
0.4883
0.4973
0.5063
0.5206
0.5512
0.5996
0.6625
0.7289
0.7899
0.8348
0.8510
0.8438
0.8097
0.7487
0.6589
0.5494
0.4345
0.3429
0.2693
0.2154
0.1831
0.1670
0.1670
0.1813
0.1993
0.2154
0.2316
0.2442
0.2603
0.2783
0.3052
0.3375
0.3662
0.3842
0.3968
0.3986
0.3968
0.3968
0.4057
0.4201
0.4363
0.4470
0.4470
0.4363
0.4255
0.4201
0.4219
0.4309
0.4470
0.4578
0.4596
0.4524
0.4399
0.4309
0.4309
0.4363
0.4524
0.4650
0.4686
0.4668
0.4560
0.4452
0.4381
0.4452
0.4560
0.4704
0.4758
0.4758
0.4668
0.4542
0.4452
0.4470
0.4560
0.4686
0.4776
0.4776
0.4722
0.4614
0.4524
0.4506
0.4578
0.4722
0.4829
0.4865
0.4811
0.4704
0.4596
0.4560
0.4596
0.4722
0.4847
0.4937
0.4919
0.4829
0.4722
0.4668
0.4686
0.4776
0.4901
0.5009
0.5009
0.4955
0.4829
0.4758
0.4740
0.4829
0.4955
0.5063
0.5099
0.5081
0.4973
0.4865
0.4829
0.4865
0.4991
0.5135
0.5206
0.5189
0.5099
0.4973
0.4919
0.4937
0.5027
0.5171
0.5260
0.5260
0.5206
0.5081
0.4991
0.4973
0.5045
0.5153
0.5260
0.5296
0.5242
0.5117
0.4991
0.4937
0.4973
0.5063
0.5153
0.5171
0.5135
0.5009
0.4847
0.4740
0.4704
0.4740
0.4829
0.4865
0.4811
0.4686
0.4506
0.4345
0.4291
0.4327
0.4434
0.4524
0.4524
0.4434
0.4273
0.4147
0.4093
0.4093
0.4183
0.4291
0.4345
0.4309
0.4183
0.4039
0.3968
0.3986
0.4057
0.4165
0.4237
0.4237
0.4147
0.4022
0.3914
0.3896
0.3968
0.4093
0.4183
0.4201
0.4165
0.4057
0.3932
0.3896
0.3932
0.4039
0.4147
0.4201
0.4165
0.4057
0.3950
0.3878
0.3878
0.3968
0.4111
0.4201
0.4201
0.4129
0.4004
0.3914
0.3914
0.3986
0.4111
0.4219
0.4255
0.4201
0.4093
0.3968
0.3932
0.3986
0.4093
0.4219
0.4273
0.4255
0.4165
0.4039
0.3968
0.3986
0.4075
0.4219
0.4291
0.4291
0.4201
0.4075
0.3986
0.3968
0.4039
0.4165
0.4291
0.4327
0.4255
0.4147
0.4057
0.4022
0.4075
0.4201
0.4327
0.4381
0.4345
0.4237
0.4129
0.4057
0.4093
0.4201
0.4327
0.4399
0.4399
0.4327
0.4183
0.4093
0.4093
0.4147
0.4273
0.4381
0.4399
0.4327
0.4201
0.4093
0.4057
0.4093
0.4219
0.4345
0.4399
0.4381
0.4273
0.4165
0.4111
0.4111
0.4201
0.4327
0.4417
0.4399
0.4327
0.4201
0.4111
0.4111
0.4183
0.4309
0.4417
0.4470
0.4381
0.4255
0.4147
0.4111
0.4165
0.4291
0.4399
0.4470
0.4399
0.4309
0.4183
0.4111
0.4129
0.4219
0.4345
0.4452
0.4452
0.4345
0.4219
0.4129
0.4129
0.4201
0.4327
0.4452
0.4470
0.4399
0.4273
0.4165
0.4129
0.4183
0.4309
0.4452
0.4506
0.4470
0.4345
0.4219
0.4147
0.4165
0.4255
0.4399
0.4488
0.4470
0.4345
0.4237
0.4147
0.4147
0.4219
0.4363
0.4470
0.4506
0.4417
0.4291
0.4183
0.4147
0.4183
0.4309
0.4452
0.4524
0.4488
0.4363
0.4237
0.4183
0.4201
0.4291
0.4399
0.4506
0.4506
0.4399
0.4273
0.4183
0.4201
0.4327
0.4524
0.4668
0.4740
0.4704
0.4614
0.4506
0.4488
0.4560
0.4686
0.4811
0.4847
0.4794
0.4668
0.4524
0.4452
0.4470
0.4542
0.4650
0.4686
0.4650
0.4542
0.4381
0.4273
0.4237
0.4291
0.4399
0.4506
0.4524
0.4452
0.4309
0.4201
0.4165
0.4219
0.4345
0.4470
0.4506
0.4470
0.4345
0.4219
0.4165
0.4201
0.4309
0.4488
0.4614
0.4686
0.4722
0.4758
0.4883
0.5135
0.5530
0.6086
0.6679
0.7235
0.7738
0.8115
0.8294
0.8276
0.8043
0.7540
0.6661
0.5476
0.4255
0.3250
0.2513
0.2065
0.1849
0.1795
0.1849
0.1921
0.1993
0.2029
0.2101
0.2280
0.2531
0.2819
0.3142
0.3429
0.3609
0.3716
0.3752
0.3788
0.3878
0.4004
0.4165
0.4327
0.4399
0.4381
0.4273
0.4183
0.4147
0.4183
0.4309
0.4470
0.4560
0.4560
0.4470
0.4345
0.4273
0.4291
0.4399
0.4560
0.4650
0.4686
0.4614
0.4488
0.4363
0.4345
0.4417
0.4560
0.4686
0.4740
0.4704
0.4614
0.4488
0.4399
0.4452
0.4578
0.4704
0.4776
0.4758
0.4668
0.4542
0.4470
0.4488
0.4578
0.4722
0.4829
0.4847
0.4794
0.4686
0.4596
0.4596
0.4668
0.4794
0.4901
0.4955
0.4919
0.4811
0.4704
0.4668
0.4704
0.4829
0.4955
0.5027
0.5009
0.4937
0.4811
0.4740
0.4758
0.4847
0.4991
0.5099
0.5117
0.5045
0.4937
0.4865
0.4847
0.4919
0.5063
0.5189
0.5242
0.5224
0.5135
0.5045
0.5009
0.5063
0.5153
0.5296
0.5368
0.5350
0.5260
0.5135
0.5081
0.5081
0.5189
0.5296
0.5368
0.5386
0.5296
0.5171
0.5045
0.5009
0.5063
0.5153
0.5242
0.5242
0.5171
0.5009
0.4865
0.4776
0.4758
0.4829
0.4901
0.4919
0.4847
0.4686
0.4524
0.4381
0.4345
0.4399
0.4506
0.4560
0.4542
0.4417
0.4255
0.4129
0.4093
0.4129
0.4237
0.4327
0.4327
0.4255
0.4111
0.3986
0.3932
0.3950
0.4057
0.4183
0.4219
0.4183
0.4093
0.3968
0.3896
0.3896
0.3986
0.4093
0.4183
0.4165
0.4075
0.3950
0.3860
0.3860
0.3914
0.4039
0.4129
0.4165
0.4111
0.4004
0.3896
0.3842
0.3896
0.3986
0.4111
0.4165
0.4147
0.4039
0.3914
0.3860
0.3878
0.3968
0.4093
0.4165
0.4183
0.4111
0.3986
0.3896
0.3878
0.3950
0.4075
0.4183
0.4201
0.4147
0.4039
0.3932
0.3896
0.3932
0.4057
0.4183
0.4255
0.4237
0.4129
0.4022
0.3950
0.3968
0.4057
0.4183
0.4273
0.4291
0.4201
0.4075
0.4004
0.4004
0.4075
0.4201
0.4309
0.4345
0.4291
0.4183
0.4075
0.4022
0.4075
0.4183
0.4309
0.4363
0.4327
0.4219
0.4093
0.4022
0.4039
0.4129
0.4273
0.4363
0.4363
0.4273
0.4147
0.4075
0.4075
0.4129
0.4237
0.4345
0.4381
0.4327
0.4219
0.4111
0.4075
0.4111
0.4237
0.4363
0.4417
0.4381
0.4273
0.4147
0.4075
0.4093
0.4183
0.4309
0.4399
0.4381
0.4291
0.4165
0.4075
0.4075
0.4147
0.4273
0.4381
0.4399
0.4327
0.4201
0.4093
0.4075
0.4111
0.4237
0.4363
0.4452
0.4399
0.4291
0.4165
0.4093
0.4111
0.4219
0.4363
0.4452
0.4452
0.4345
0.4201
0.4111
0.4111
0.4201
0.4327
0.4452
0.4470
0.4399
0.4291
0.4183
0.4129
0.4165
0.4291
0.4399
0.4470
0.4434
0.4309
0.4201
0.4147
0.4165
0.4255
0.4381
0.4488
0.4488
0.4381
0.4237
0.4147
0.4165
0.4237
0.4363
0.4470
0.4506
0.4470
0.4381
0.4309
0.4327
0.4417
0.4578
0.4704
0.4776
0.4758
0.4668
0.4542
0.4488
0.4506
0.4614
0.4722
0.4776
0.4740
0.4614
0.4452
0.4309
0.4273
0.4327
0.4452
0.4542
0.4542
0.4452
0.4273
0.4165
0.4129
0.4165
0.4273
0.4399
0.4470
0.4434
0.4309
0.4183
0.4111
0.4147
0.4255
0.4381
0.4470
0.4470
0.4381
0.4273
0.4237
0.4309
0.4524
0.4811
0.5117
0.5368
0.5619
0.5871
0.6230
0.6715
0.7307
0.7935
0.8384
0.8492
0.8205
0.7469
0.6373
0.5117
0.3968
0.3196
0.2729
0.2388
0.2118
0.1867
0.1670
0.1598
0.1670
0.1885
0.2208
0.2531
0.2783
0.2926
0.2998
0.3070
0.3214
0.3447
0.3716
0.3986
0.4147
0.4183
0.4129
0.4057
0.4039
0.4093
0.4219
0.4363
0.4488
0.4488
0.4399
0.4273
0.4219
0.4219
0.4309
0.4470
0.4578
0.4614
0.4560
0.4417
0.4327
0.4309
0.4381
0.4542
0.4650
0.4704
0.4686
0.4578
0.4452
0.4381
0.4417
0.4542
0.4668
0.4758
0.4758
0.4668
0.4542
0.4470
0.4470
0.4560
0.4686
0.4794
0.4794
0.4740
0.4614
0.4524
0.4506
0.4578
0.4704
0.4829
0.4865
0.4829
0.4740
0.4614
0.4578
0.4632
0.4740
0.4865
0.4955
0.4937
0.4865
0.4740
0.4668
0.4686
0.4794
0.4937
0.5027
0.5045
0.5009
0.4901
0.4811
0.4794
0.4865
0.5009
0.5135
0.5171
0.5135
0.5027
0.4937
0.4901
0.4937
0.5063
0.5206
0.5296
0.5296
0.5206
0.5099
0.5045
0.5063
0.5153
0.5260
0.5368
0.5368
0.5296
0.5171
0.5063
0.5045
0.5099
0.5206
0.5296
0.5332
0.5278
0.5153
0.5009
0.4919
0.4919
0.4973
0.5063
0.5063
0.4991
0.4847
0.4668
0.4542
0.4506
0.4560
0.4632
0.4686
0.4650
0.4542
0.4363
0.4219
0.4147
0.4165
0.4273
0.4363
0.4381
0.4309
0.4165
0.4039
0.3968
0.4004
0.4111
0.4219
0.4255
0.4219
0.4111
0.3986
0.3896
0.3896
0.3986
0.4093
0.4165
0.4165
0.4075
0.3968
0.3860
0.3842
0.3896
0.4004
0.4111
0.4129
0.4075
0.3968
0.3860
0.3824
0.3842
0.3950
0.4057
0.4129
0.4129
0.4039
0.3914
0.3842
0.3860
0.3950
0.4057
0.4147
0.4165
0.4093
0.3968
0.3878
0.3860
0.3932
0.4057
0.4165
0.4201
0.4147
0.4039
0.3932
0.3896
0.3914
0.4022
0.4147
0.4219
0.4183
0.4093
0.3968
0.3914
0.3914
0.3986
0.4129
0.4219
0.4237
0.4165
0.4039
0.3950
0.3950
0.4004
0.4129
0.4255
0.4291
0.4255
0.4147
0.4039
0.4004
0.4057
0.4165
0.4291
0.4345
0.4327
0.4237
0.4111
0.4022
0.4039
0.4129
0.4255
0.4327
0.4327
0.4255
0.4129
0.4039
0.4022
0.4093
0.4219
0.4327
0.4363
0.4309
0.4201
0.4093
0.4039
0.4075
0.4183
0.4309
0.4381
0.4345
0.4255
0.4129
0.4057
0.4075
0.4183
0.4309
0.4399
0.4399
0.4309
0.4183
0.4075
0.4057
0.4111
0.4237
0.4345
0.4363
0.4291
0.4183
0.4075
0.4039
0.4093
0.4201
0.4327
0.4399
0.4381
0.4273
0.4165
0.4111
0.4129
0.4201
0.4327
0.4417
0.4417
0.4327
0.4183
0.4093
0.4093
0.4183
0.4345
0.4506
0.4596
0.4578
0.4470
0.4363
0.4345
0.4399
0.4542
0.4686
0.4758
0.4740
0.4650
0.4524
0.4434
0.4417
0.4506
0.4596
0.4650
0.4614
0.4506
0.4327
0.4201
0.4183
0.4237
0.4345
0.4434
0.4452
0.4363
0.4237
0.4129
0.4075
0.4129
0.4255
0.4363
0.4434
0.4399
0.4291
0.4165
0.4111
0.4111
0.4219
0.4345
0.4452
0.4488
0.4470
0.4452
0.4488
0.4668
0.4955
0.5350
0.5799
0.6266
0.6715
0.7110
0.7504
0.7864
0.8133
0.8169
0.7864
0.7163
0.6086
0.4776
0.3591
0.2783
0.2298
0.2065
0.1975
0.1939
0.1867
0.1813
0.1777
0.1831
0.2029
0.2352
0.2711
0.3016
0.3214
0.3339
0.3393
0.3447
0.3573
0.3770
0.4004
0.4201
0.4291
0.4291
0.4219
0.4129
0.4093
0.4147
0.4255
0.4417
0.4524
0.4524
0.4452
0.4327
0.4255
0.4255
0.4345
0.4488
0.4614
0.4650
0.4614
0.4488
0.4363
0.4345
0.4399
0.4542
0.4668
0.4722
0.4704
0.4596
0.4488
0.4399
0.4452
0.4560
0.4704
0.4776
0.4776
0.4704
0.4596
0.4506
0.4506
0.4596
0.4722
0.4829
0.4865
0.4811
0.4686
0.4614
0.4578
0.4632
0.4758
0.4883
0.4955
0.4919
0.4829
0.4722
0.4668
0.4722
0.4829
0.4955
0.5027
0.5027
0.4955
0.4847
0.4776
0.4776
0.4865
0.5009
0.5117
0.5135
0.5099
0.4991
0.4919
0.4901
0.4973
0.5099
0.5242
0.5314
0.5278
0.5189
0.5099
0.5063
0.5099
0.5206
0.5350
0.5440
0.5440
0.5368
0.5242
0.5171
0.5171
0.5242
0.5350
0.5440
0.5458
0.5404
0.5278
0.5153
0.5117
0.5153
0.5260
0.5350
0.5368
0.5296
0.5153
0.4991
0.4883
0.4865
0.4919
0.4973
0.4973
0.4901
0.4758
0.4578
0.4452
0.4381
0.4417
0.4524
0.4578
0.4560
0.4452
0.4273
0.4147
0.4093
0.4111
0.4201
0.4309
0.4327
0.4273
0.4147
0.4022
0.3950
0.3968
0.4057
0.4165
0.4219
0.4201
0.4111
0.3968
0.3896
0.3878
0.3968
0.4075
0.4183
0.4183
0.4111
0.4004
0.3896
0.3860
0.3914
0.4039
0.4129
0.4165
0.4111
0.4004
0.3896
0.3842
0.3860
0.3968
0.4093
0.4165
0.4147
0.4057
0.3950
0.3878
0.3878
0.3968
0.4093
0.4165
0.4183
0.4129
0.4004
0.3914
0.3896
0.3950
0.4075
0.4183
0.4219
0.4183
0.4075
0.3968
0.3914
0.3950
0.4057
0.4183
0.4237
0.4237
0.4147
0.4022
0.3950
0.3950
0.4039
0.4165
0.4273
0.4291
0.4237
0.4111
0.4022
0.4004
0.4075
0.4183
0.4309
0.4345
0.4309
0.4201
0.4075
0.4022
0.4057
0.4165
0.4291
0.4345
0.4345
0.4255
0.4129
0.4057
0.4057
0.4147
0.4273
0.4363
0.4363
0.4291
0.4165
0.4075
0.4039
0.4111
0.4237
0.4363
0.4399
0.4345
0.4237
0.4129
0.4093
0.4129
0.4237
0.4363
0.4452
0.4399
0.4309
0.4165
0.4093
0.4111
0.4201
0.4327
0.4434
0.4452
0.4363
0.4237
0.4147
0.4111
0.4183
0.4309
0.4417
0.4470
0.4399
0.4273
0.4165
0.4111
0.4147
0.4255
0.4399
0.4470
0.4452
0.4327
0.4201
0.4129
0.4147
0.4219
0.4363
0.4470
0.4470
0.4381
0.4255
0.4147
0.4129
0.4201
0.4327
0.4452
0.4506
0.4452
0.4327
0.4201
0.4147
0.4183
0.4291
0.4434
0.4488
0.4452
0.4345
0.4219
0.4147
0.4165
0.4255
0.4381
0.4506
0.4506
0.4399
0.4255
0.4165
0.4147
0.4219
0.4345
0.4470
0.4524
0.4488
0.4399
0.4345
0.4345
0.4452
0.4596
0.4722
0.4794
0.4794
0.4704
0.4578
0.4524
0.4542
0.4632
0.4740
0.4811
0.4776
0.4686
0.4542
0.4381
0.4327
0.4363
0.4488
0.4560
0.4578
0.4488
0.4327
0.4183
0.4129
0.4147
0.4273
0.4399
0.4488
0.4452
0.4345
0.4219
0.4147
0.4165
0.4273
0.4399
0.4506
0.4506
0.4399
0.4291
0.4237
0.4291
0.4488
0.4758
0.5045
0.5296
0.5512
0.5745
0.6068
0.6553
0.7145
0.7792
0.8366
0.8618
0.8492
0.7935
0.7092
0.6032
0.4847
0.3806
0.3124
0.2639
0.2280
0.1975
0.1706
0.1580
0.1634
0.1795
0.2047
0.2370
0.2675
0.2855
0.2944
0.3034
0.3178
0.3411
0.3680
0.3968
0.4147
0.4219
0.4183
0.4093
0.4057
0.4093
0.4201
0.4345
0.4470
0.4470
0.4381
0.4273
0.4201
0.4201
0.4291
0.4452
0.4578
0.4614
0.4560
0.4452
0.4327
0.4309
0.4363
0.4488
0.4632
0.4686
0.4668
0.4578
0.4470
0.4399
0.4452
0.4560
0.4686
0.4776
0.4776
0.4704
0.4560
0.4470
0.4470
0.4560
0.4704
0.4794
0.4829
0.4794
0.4686
0.4578
0.4542
0.4596
0.4722
0.4847
0.4901
0.4883
0.4776
0.4668
0.4614
0.4632
0.4740
0.4883
0.4973
0.4973
0.4919
0.4794
0.4704
0.4722
0.4811
0.4937
0.5045
0.5081
0.5045
0.4937
0.4847
0.4811
0.4865
0.5009
0.5135
0.5189
0.5171
0.5099
0.4991
0.4937
0.4973
0.5081
0.5224
0.5296
0.5314
0.5242
0.5117
0.5045
0.5045
0.5135
0.5260
0.5368
0.5386
0.5332
0.5206
0.5099
0.5081
0.5117
0.5206
0.5314
0.5350
0.5296
0.5189
0.5045
0.4955
0.4955
0.5009
0.5099
0.5135
0.5099
0.4973
0.4794
0.4668
0.4596
0.4614
0.4686
0.4740
0.4704
0.4596
0.4434
0.4273
0.4201
0.4219
0.4309
0.4399
0.4434
0.4363
0.4237
0.4093
0.4022
0.4022
0.4093
0.4201
0.4273
0.4255
0.4165
0.4022
0.3932
0.3932
0.4004
0.4129
0.4219
0.4237
0.4183
0.4039
0.3932
0.3878
0.3932
0.4057
0.4165
0.4201
0.4147
0.4039
0.3914
0.3860
0.3878
0.3986
0.4111
0.4183
0.4165
0.4075
0.3950
0.3878
0.3878
0.3950
0.4075
0.4183
0.4201
0.4147
0.4022
0.3914
0.3896
0.3950
0.4075
0.4183
0.4219
0.4183
0.4093
0.3968
0.3914
0.3932
0.4057
0.4183
0.4255
0.4255
0.4165
0.4039
0.3950
0.3932
0.4022
0.4147
0.4255
0.4273
0.4201
0.4093
0.3986
0.3968
0.4004
0.4129
0.4255
0.4309
0.4273
0.4165
0.4039
0.4004
0.4039
0.4147
0.4255
0.4345
0.4327
0.4237
0.4111
0.4039
0.4039
0.4129
0.4255
0.4345
0.4363
0.4309
0.4201
0.4093
0.4057
0.4111
0.4219
0.4345
0.4381
0.4327
0.4201
0.4093
0.4039
0.4075
0.4183
0.4309
0.4381
0.4363
0.4273
0.4147
0.4075
0.4075
0.4165
0.4291
0.4381
0.4399
0.4327
0.4201
0.4093
0.4075
0.4129
0.4255
0.4381
0.4434
0.4381
0.4273
0.4147
0.4093
0.4129
0.4219
0.4345
0.4417
0.4399
0.4309
0.4183
0.4093
0.4093
0.4165
0.4309
0.4399
0.4399
0.4327
0.4219
0.4111
0.4093
0.4147
0.4273
0.4399
0.4470
0.4417
0.4291
0.4165
0.4111
0.4147
0.4255
0.4381
0.4470
0.4452
0.4327
0.4201
0.4129
0.4129
0.4219
0.4345
0.4452
0.4452
0.4363
0.4237
0.4129
0.4111
0.4165
0.4291
0.4399
0.4470
0.4399
0.4291
0.4183
0.4129
0.4147
0.4255
0.4381
0.4470
0.4452
0.4327
0.4201
0.4129
0.4147
0.4237
0.4363
0.4470
0.4488
0.4399
0.4273
0.4183
0.4165
0.4219
0.4345
0.4470
0.4488
0.4452
0.4327
0.4201
0.4147
0.4165
0.4273
0.4452
0.4560
0.4596
0.4542
0.4452
0.4381
0.4399
0.4506
0.4650
0.4758
0.4776
0.4722
0.4614
0.4506
0.4470
0.4506
0.4596
0.4686
0.4704
0.4632
0.4506
0.4327
0.4255
0.4255
0.4327
0.4452
0.4488
0.4452
0.4327
0.4201
0.4111
0.4111
0.4201
0.4345
0.4452
0.4452
0.4345
0.4237
0.4147
0.4129
0.4183
0.4291
0.4417
0.4488
0.4470
0.4399
0.4381
0.4506
0.4704
0.4991
0.5368
0.5781
0.6194
0.6607
0.7056
0.7540
0.8043
0.8384
0.8456
0.8223
0.7594
0.6517
0.5153
0.3860
0.2962
0.2424
0.2136
0.1993
0.1885
0.1777
0.1706
0.1670
0.1759
0.2029
0.2388
0.2765
0.3052
0.3232
0.3303
0.3357
0.3465
0.3609
0.3824
0.4039
0.4201
0.4255
0.4219
0.4129
0.4057
0.4075
0.4165
0.4309
0.4452
0.4506
0.4470
0.4345
0.4237
0.4201
0.4255
0.4363
0.4506
0.4578
0.4578
0.4506
0.4363
0.4291
0.4291
0.4399
0.4542
0.4650
0.4650
0.4578
0.4452
0.4345
0.4327
0.4399
0.4542
0.4668
0.4704
0.4668
0.4560
0.4452
0.4399
0.4470
0.4596
0.4704
0.4776
0.4758
0.4668
0.4542
0.4470
0.4488
0.4596
0.4740
0.4829
0.4829
0.4776
0.4650
0.4560
0.4560
0.4632
0.4758
0.4883
0.4901
0.4847
0.4740
0.4632
0.4596
0.4650
0.4776
0.4919
0.4991
0.4991
0.4901
0.4794
0.4740
0.4758
0.4847
0.4973
0.5081
0.5099
0.5045
0.4937
0.4865
0.4865
0.4955
0.5081
0.5189
0.5242
0.5206
0.5099
0.4991
0.4955
0.4991
0.5099
0.5206
0.5260
0.5224
0.5117
0.5009
0.4919
0.4919
0.5009
0.5117
0.5189
0.5171
0.5081
0.4919
0.4811
0.4776
0.4794
0.4883
0.4955
0.4937
0.4829
0.4668
0.4506
0.4399
0.4399
0.4488
0.4578
0.4596
0.4524
0.4363
0.4201
0.4093
0.4075
0.4147
0.4255
0.4309
0.4273
0.4183
0.4039
0.3932
0.3914
0.3950
0.4075
0.4165
0.4183
0.4111
0.3986
0.3878
0.3842
0.3878
0.3986
0.4093
0.4147
0.4111
0.4004
0.3878
0.3824
0.3842
0.3950
0.4057
0.4129
0.4129
0.4039
0.3914
0.3824
0.3824
0.3878
0.4004
0.4093
0.4129
0.4075
0.3968
0.3860
0.3806
0.3860
0.3968
0.4075
0.4129
0.4111
0.4004
0.3878
0.3824
0.3842
0.3932
0.4057
0.4147
0.4147
0.4075
0.3950
0.3878
0.3878
0.3932
0.4057
0.4165
0.4201
0.4147
0.4039
0.3932
0.3896
0.3950
0.4075
0.4183
0.4237
0.4219
0.4111
0.3986
0.3932
0.3950
0.4039
0.4183
0.4255
0.4255
0.4165
0.4039
0.3968
0.3950
0.4039
0.4165
0.4273
0.4309
0.4237
0.4111
0.4022
0.3986
0.4022
0.4129
0.4255
0.4309
0.4291
0.4183
0.4075
0.4004
0.4039
0.4147
0.4273
0.4345
0.4345
0.4273
0.4129
0.4039
0.4022
0.4111
0.4237
0.4345
0.4363
0.4309
0.4219
0.4093
0.4039
0.4093
0.4201
0.4327
0.4363
0.4327
0.4219
0.4093
0.4039
0.4057
0.4147
0.4291
0.4381
0.4381
0.4291
0.4183
0.4093
0.4093
0.4165
0.4291
0.4381
0.4399
0.4345
0.4219
0.4111
0.4075
0.4111
0.4237
0.4363
0.4417
0.4381
0.4273
0.4147
0.4075
0.4093
0.4183
0.4309
0.4381
0.4363
0.4273
0.4147
0.4075
0.4075
0.4147
0.4273
0.4381
0.4417
0.4345
0.4219
0.4129
0.4093
0.4147
0.4255
0.4381
0.4452
0.4417
0.4309
0.4183
0.4111
0.4129
0.4219
0.4345
0.4434
0.4434
0.4345
0.4237
0.4183
0.4219
0.4345
0.4542
0.4668
0.4704
0.4650
0.4542
0.4452
0.4399
0.4470
0.4596
0.4740
0.4794
0.4740
0.4614
0.4470
0.4363
0.4363
0.4434
0.4542
0.4596
0.4560
0.4470
0.4291
0.4183
0.4147
0.4201
0.4309
0.4399
0.4434
0.4363
0.4237
0.4111
0.4075
0.4129
0.4237
0.4363
0.4399
0.4345
0.4237
0.4111
0.4057
0.4093
0.4255
0.4488
0.4686
0.4829
0.4937
0.5045
0.5260
0.5619
0.6140
0.6768
0.7397
0.7953
0.8276
0.8276
0.7971
0.7397
0.6553
0.5476
0.4399
0.3519
0.2837
0.2298
0.1903
0.1670
0.1598
0.1688
0.1867
0.2065
0.2244
0.2406
0.2513
0.2657
0.2855
0.3106
0.3393
0.3662
0.3824
0.3914
0.3914
0.3914
0.3932
0.4022
0.4165
0.4309
0.4381
0.4381
0.4291
0.4183
0.4147
0.4201
0.4327
0.4488
0.4560
0.4560
0.4470
0.4345
0.4273
0.4273
0.4381
0.4542
0.4632
0.4650
0.4578
0.4470
0.4345
0.4327
0.4381
0.4524
0.4650
0.4704
0.4668
0.4578
0.4452
0.4381
0.4434
0.4560
0.4686
0.4776
0.4776
0.4686
0.4560
0.4488
0.4506
0.4578
0.4704
0.4794
0.4829
0.4776
0.4668
0.4560
0.4560
0.4614
0.4740
0.4865
0.4919
0.4883
0.4811
0.4704
0.4650
0.4686
0.4794
0.4937
0.5009
0.4991
0.4919
0.4794
0.4740
0.4740
0.4829
0.4973
0.5099
0.5135
0.5081
0.4973
0.4901
0.4901
0.4973
0.5099
0.5224
0.5296
0.5260
0.5171
0.5081
0.5045
0.5081
0.5189
0.5314
0.5386
0.5386
0.5296
0.5171
0.5081
0.5081
0.5171
0.5296
0.5368
0.5368
0.5278
0.5153
0.5027
0.4991
0.5009
0.5099
0.5171
0.5171
0.5099
0.4955
0.4794
0.4704
0.4686
0.4722
0.4794
0.4811
0.4758
0.4614
0.4417
0.4291
0.4255
0.4309
0.4399
0.4470
0.4452
0.4345
0.4183
0.4057
0.4022
0.4057
0.4165
0.4237
0.4255
0.4201
0.4075
0.3950
0.3878
0.3896
0.3986
0.4111
0.4165
0.4147
0.4039
0.3896
0.3842
0.3842
0.3932
0.4057
0.4147
0.4165
0.4093
0.3968
0.3860
0.3860
0.3914
0.4022
0.4129
0.4165
0.4111
0.4004
0.3878
0.3842
0.3878
0.3986
0.4093
0.4147
0.4147
0.4057
0.3950
0.3878
0.3878
0.3968
0.4093
0.4183
0.4183
0.4129
0.4004
0.3914
0.3896
0.3950
0.4075
0.4201
0.4237
0.4201
0.4093
0.3986
0.3950
0.3986
0.4093
0.4201
0.4273
0.4255
0.4165
0.4039
0.3968
0.3986
0.4093
0.4219
0.4309
0.4327
0.4255
0.4129
0.4022
0.4004
0.4075
0.4219
0.4327
0.4345
0.4291
0.4183
0.4075
0.4039
0.4075
0.4183
0.4309
0.4381
0.4363
0.4255
0.4147
0.4075
0.4075
0.4147
0.4273
0.4381
0.4399
0.4309
0.4183
0.4093
0.4075
0.4147
0.4273
0.4381
0.4417
0.4363
0.4255
0.4147
0.4093
0.4129
0.4237
0.4345
0.4417
0.4381
0.4291
0.4165
0.4093
0.4093
0.4183
0.4309
0.4399
0.4399
0.4327
0.4201
0.4111
0.4093
0.4147
0.4255
0.4381
0.4417
0.4363
0.4255
0.4147
0.4093
0.4147
0.4273
0.4399
0.4470
0.4452
0.4327
0.4219
0.4147
0.4165
0.4255
0.4381
0.4470
0.4452
0.4363
0.4237
0.4147
0.4129
0.4201
0.4363
0.4560
0.4632
0.4614
0.4524
0.4399
0.4381
0.4434
0.4560
0.4704
0.4776
0.4776
0.4686
0.4542
0.4470
0.4470
0.4524
0.4632
0.4686
0.4668
0.4560
0.4399
0.4273
0.4219
0.4273
0.4381
0.4470
0.4488
0.4434
0.4291
0.4165
0.4129
0.4165
0.4273
0.4399
0.4470
0.4434
0.4309
0.4201
0.4129
0.4147
0.4237
0.4381
0.4506
0.4542
0.4542
0.4542
0.4614
0.4794
0.5081
0.5458
0.5907
0.6391
0.6858
0.7289
0.7702
0.8043
0.8223
0.8151
0.7738
0.6984
0.5943
0.4668
0.3519
0.2729
0.2244
0.2011
0.1939
0.1903
0.1885
0.1849
0.1831
0.1885
0.2101
0.2424
0.2783
0.3088
0.3321
0.3447
0.3519
0.3573
0.3698
0.3860
0.4057
0.4237
0.4345
0.4363
0.4291
0.4201
0.4147
0.4183
0.4291
0.4470
0.4560
0.4578
0.4506
0.4381
0.4291
0.4291
0.4363
0.4506
0.4632
0.4650
0.4614
0.4524
0.4399
0.4363
0.4417
0.4542
0.4686
0.4740
0.4722
0.4632
0.4524
0.4452
0.4470
0.4578
0.4704
0.4794
0.4811
0.4740
0.4614
0.4524
0.4524
0.4614
0.4740
0.4847
0.4883
0.4847
0.4722
0.4614
0.4596
0.4650
0.4776
0.4901
0.4955
0.4937
0.4847
0.4740
0.4686
0.4704
0.4811
0.4955
0.5045
0.5045
0.4973
0.4865
0.4794
0.4794
0.4865
0.5009
0.5117
0.5171
0.5117
0.5027
0.4919
0.4919
0.4973
0.5099
0.5224
0.5296
0.5296
0.5206
0.5099
0.5063
0.5099
0.5206
0.5332
0.5422
0.5422
0.5350
0.5242
0.5153
0.5153
0.5224
0.5350
0.5440
0.5458
0.5386
0.5260
0.5153
0.5099
0.5117
0.5206
0.5314
0.5332
0.5260
0.5117
0.4955
0.4847
0.4829
0.4865
0.4955
0.4973
0.4919
0.4794
0.4596
0.4470
0.4399
0.4452
0.4524
0.4596
0.4578
0.4488
0.4309
0.4147
0.4075
0.4093
0.4201
0.4291
0.4309
0.4255
0.4147
0.4022
0.3950
0.3950
0.4039
0.4165
0.4219
0.4201
0.4111
0.4004
0.3914
0.3896
0.3950
0.4075
0.4165
0.4201
0.4147
0.4022
0.3914
0.3878
0.3914
0.4022
0.4147
0.4201
0.4165
0.4039
0.3932
0.3860
0.3878
0.3986
0.4111
0.4183
0.4165
0.4075
0.3968
0.3878
0.3860
0.3950
0.4075
0.4165
0.4183
0.4129
0.4004
0.3914
0.3878
0.3932
0.4057
0.4183
0.4237
0.4201
0.4111
0.4004
0.3932
0.3968
0.4057
0.4183
0.4273
0.4273
0.4183
0.4075
0.3986
0.3968
0.4057
0.4183
0.4291
0.4327
0.4273
0.4147
0.4039
0.4004
0.4057
0.4165
0.4291
0.4327
0.4291
0.4183
0.4075
0.4022
0.4039
0.4147
0.4291
0.4363
0.4363
0.4273
0.4147
0.4057
0.4057
0.4129
0.4255
0.4363
0.4381
0.4309
0.4183
0.4093
0.4057
0.4111
0.4237
0.4345
0.4399
0.4363
0.4255
0.4147
0.4075
0.4093
0.4201
0.4327
0.4399
0.4381
0.4291
0.4165
0.4093
0.4093
0.4165
0.4291
0.4399
0.4399
0.4327
0.4219
0.4111
0.4093
0.4129
0.4255
0.4381
0.4452
0.4381
0.4273
0.4165
0.4111
0.4147
0.4255
0.4381
0.4470
0.4452
0.4345
0.4219
0.4129
0.4111
0.4201
0.4327
0.4434
0.4452
0.4363
0.4255
0.4147
0.4093
0.4147
0.4273
0.4399
0.4452
0.4381
0.4273
0.4165
0.4111
0.4129
0.4237
0.4363
0.4470
0.4452
0.4345
0.4219
0.4129
0.4129
0.4219
0.4345
0.4470
0.4488
0.4399
0.4273
0.4165
0.4129
0.4183
0.4291
0.4399
0.4452
0.4399
0.4291
0.4183
0.4147
0.4219
0.4381
0.4578
0.4686
0.4704
0.4614
0.4488
0.4381
0.4399
0.4524
0.4668
0.4776
0.4811
0.4740
0.4596
0.4470
0.4399
0.4434
0.4542
0.4614
0.4632
0.4560
0.4399
0.4237
0.4165
0.4183
0.4273
0.4399
0.4470
0.4452
0.4327
0.4201
0.4111
0.4111
0.4201
0.4327
0.4417
0.4417
0.4345
0.4201
0.4111
0.4075
0.4147
0.4291
0.4506
0.4632
0.4722
0.4794
0.4883
0.5117
0.5440
0.5907
0.6517
0.7127
0.7684
0.8115
0.8312
0.8276
0.8007
0.7451
0.6571
0.5494
0.4363
0.3393
0.2603
0.2065
0.1759
0.1652
0.1688
0.1795
0.1921
0.2011
0.2118
0.2244
0.2442
0.2693
0.2998
0.3303
0.3555
0.3716
0.3788
0.3806
0.3842
0.3932
0.4039
0.4201
0.4327
0.4381
0.4327
0.4219
0.4147
0.4129
0.4219
0.4363
0.4506
0.4542
0.4506
0.4399
0.4273
0.4219
0.4273
0.4381
0.4542
0.4614
0.4596
0.4506
0.4381
0.4291
0.4309
0.4417
0.4560
0.4650
0.4668
0.4596
0.4488
0.4381
0.4363
0.4452
0.4578
0.4704
0.4758
0.4722
0.4614
0.4488
0.4452
0.4488
0.4596
0.4740
0.4811
0.4811
0.4740
0.4614
0.4542
0.4542
0.4632
0.4776
0.4865
0.4901
0.4847
0.4722
0.4632
0.4614
0.4668
0.4794
0.4919
0.4991
0.4955
0.4847
0.4740
0.4704
0.4740
0.4865
0.5009
0.5099
0.5099
0.5027
0.4901
0.4829
0.4865
0.4955
0.5081
0.5206
0.5242
0.5189
0.5063
0.4991
0.4973
0.5045
0.5189
0.5314
0.5350
0.5314
0.5206
0.5099
0.5027
0.5063
0.5153
0.5278
0.5350
0.5314
0.5224
0.5081
0.4991
0.4973
0.5027
0.5135
0.5206
0.5189
0.5081
0.4901
0.4758
0.4686
0.4704
0.4776
0.4847
0.4847
0.4758
0.4596
0.4399
0.4291
0.4273
0.4345
0.4452
0.4488
0.4452
0.4309
0.4147
0.4039
0.4022
0.4075
0.4183
0.4273
0.4255
0.4165
0.4022
0.3914
0.3878
0.3932
0.4057
0.4165
0.4201
0.4147
0.4022
0.3896
0.3860
0.3878
0.3968
0.4093
0.4165
0.4147
0.4057
0.3914
0.3842
0.3842
0.3932
0.4057
0.4147
0.4165
0.4093
0.3968
0.3860
0.3842
0.3896
0.4022
0.4129
0.4165
0.4129
0.4022
0.3914
0.3860
0.3878
0.3986
0.4111
0.4165
0.4147
0.4057
0.3932
0.3842
0.3860
0.3950
0.4075
0.4165
0.4183
0.4129
0.4022
0.3914
0.3914
0.3986
0.4093
0.4201
0.4255
0.4219
0.4093
0.3968
0.3914
0.3950
0.4057
0.4183
0.4255
0.4255
0.4183
0.4057
0.3968
0.3968
0.4039
0.4183
0.4291
0.4309
0.4237
0.4093
0.4004
0.3986
0.4039
0.4165
0.4273
0.4309
0.4273
0.4147
0.4022
0.3986
0.4022
0.4111
0.4237
0.4309
0.4291
0.4201
0.4075
0.4004
0.4004
0.4111
0.4255
0.4345
0.4381
0.4291
0.4165
0.4075
0.4039
0.4093
0.4219
0.4327
0.4363
0.4309
0.4201
0.4093
0.4039
0.4057
0.4165
0.4291
0.4363
0.4345
0.4237
0.4111
0.4039
0.4039
0.4111
0.4255
0.4363
0.4381
0.4309
0.4183
0.4075
0.4057
0.4129
0.4255
0.4363
0.4417
0.4363
0.4237
0.4111
0.4057
0.4075
0.4201
0.4327
0.4399
0.4363
0.4273
0.4147
0.4075
0.4075
0.4165
0.4291
0.4381
0.4399
0.4327
0.4201
0.4111
0.4075
0.4129
0.4255
0.4363
0.4399
0.4345
0.4237
0.4129
0.4075
0.4129
0.4255
0.4363
0.4452
0.4417
0.4309
0.4183
0.4093
0.4093
0.4183
0.4327
0.4417
0.4399
0.4327
0.4201
0.4111
0.4093
0.4165
0.4291
0.4399
0.4452
0.4381
0.4255
0.4129
0.4075
0.4111
0.4201
0.4345
0.4417
0.4381
0.4291
0.4165
0.4093
0.4129
0.4219
0.4345
0.4452
0.4470
0.4363
0.4237
0.4147
0.4129
0.4201
0.4327
0.4434
0.4470
0.4417
0.4291
0.4165
0.4111
0.4147
0.4255
0.4399
0.4506
0.4524
0.4470
0.4363
0.4309
0.4345
0.4470
0.4614
0.4722
0.4740
0.4668
0.4542
0.4452
0.4417
0.4470
0.4560
0.4650
0.4668
0.4596
0.4452
0.4291
0.4237
0.4255
0.4345
0.4470
0.4524
0.4470
0.4345
0.4201
0.4111
0.4111
0.4219
0.4345
0.4452
0.4417
0.4327
0.4219
0.4129
0.4111
0.4183
0.4309
0.4452
0.4488
0.4470
0.4381
0.4363
0.4452
0.4650
0.4937
0.5296
0.5655
0.6050
0.6427
0.6840
0.7325
0.7882
0.8312
0.8510
0.8384
0.7846
0.6840
0.5530
0.4219
0.3232
0.2639
0.2316
0.2154
0.2011
0.1867
0.1759
0.1724
0.1795
0.2029
0.2388
0.2765
0.3052
0.3214
0.3285
0.3339
0.3429
0.3591
0.3806
0.4057
0.4237
0.4291
0.4237
0.4129
0.4057
0.4075
0.4183
0.4327
0.4470
0.4524
0.4470
0.4345
0.4237
0.4201
0.4255
0.4381
0.4524
0.4596
0.4578
0.4488
0.4345
0.4273
0.4309
0.4417
0.4560
0.4650
0.4668
0.4578
0.4470
0.4363
0.4345
0.4417
0.4578
0.4686
0.4740
0.4686
0.4560
0.4452
0.4417
0.4488
0.4614
0.4740
0.4811
0.4794
0.4686
0.4542
0.4470
0.4506
0.4614
0.4758
0.4847
0.4865
0.4794
0.4668
0.4578
0.4578
0.4650
0.4794
0.4901
0.4937
0.4883
0.4776
0.4686
0.4650
0.4686
0.4811
0.4937
0.5009
0.4991
0.4901
0.4794
0.4758
0.4776
0.4865
0.5009
0.5099
0.5117
0.5063
0.4937
0.4865
0.4865
0.4955
0.5081
0.5189
0.5224
0.5189
0.5081
0.4973
0.4937
0.4991
0.5099
0.5224
0.5278
0.5242
0.5135
0.5009
0.4937
0.4937
0.5027
0.5153
0.5206
0.5189
0.5081
0.4919
0.4811
0.4794
0.4811
0.4919
0.4973
0.4955
0.4847
0.4686
0.4542
0.4452
0.4470
0.4542
0.4632
0.4650
0.4578
0.4417
0.4255
0.4147
0.4147
0.4219
0.4327
0.4363
0.4327
0.4219
0.4093
0.3986
0.3950
0.4022
0.4129
0.4219
0.4237
0.4165
0.4022
0.3914
0.3878
0.3914
0.4022
0.4147
0.4201
0.4165
0.4039
0.3914
0.3860
0.3896
0.3968
0.4093
0.4165
0.4165
0.4057
0.3932
0.3842
0.3842
0.3914
0.4057
0.4147
0.4165
0.4111
0.4004
0.3896
0.3860
0.3914
0.4039
0.4147
0.4183
0.4147
0.4057
0.3932
0.3878
0.3896
0.4004
0.4129
0.4219
0.4219
0.4129
0.4004
0.3914
0.3914
0.4004
0.4111
0.4219
0.4255
0.4183
0.4075
0.3968
0.3950
0.4004
0.4129
0.4237
0.4273
0.4255
0.4147
0.4039
0.3968
0.4004
0.4111
0.4237
0.4327
0.4309
0.4219
0.4093
0.4004
0.4004
0.4075
0.4219
0.4327
0.4345
0.4273
0.4165
0.4057
0.4022
0.4075
0.4183
0.4309
0.4345
0.4309
0.4219
0.4093
0.4039
0.4057
0.4165
0.4291
0.4381
0.4363
0.4273
0.4147
0.4057
0.4039
0.4111
0.4255
0.4345
0.4381
0.4309
0.4201
0.4093
0.4057
0.4111
0.4237
0.4345
0.4417
0.4381
0.4255
0.4129
0.4075
0.4093
0.4183
0.4309
0.4381
0.4363
0.4273
0.4147
0.4075
0.4093
0.4183
0.4309
0.4399
0.4452
0.4363
0.4237
0.4129
0.4111
0.4165
0.4291
0.4399
0.4452
0.4417
0.4309
0.4183
0.4111
0.4129
0.4237
0.4363
0.4452
0.4434
0.4309
0.4183
0.4111
0.4111
0.4183
0.4309
0.4434
0.4470
0.4381
0.4255
0.4165
0.4129
0.4183
0.4309
0.4417
0.4488
0.4434
0.4309
0.4183
0.4129
0.4147
0.4255
0.4381
0.4452
0.4417
0.4327
0.4219
0.4129
0.4129
0.4219
0.4363
0.4506
0.4578
0.4560
0.4470
0.4381
0.4363
0.4452
0.4578
0.4704
0.4758
0.4722
0.4614
0.4506
0.4452
0.4470
0.4524
0.4632
0.4686
0.4650
0.4542
0.4363
0.4255
0.4237
0.4309
0.4417
0.4506
0.4488
0.4381
0.4255
0.4147
0.4111
0.4165
0.4291
0.4399
0.4452
0.4381
0.4273
0.4165
0.4111
0.4147
0.4255
0.4381
0.4470
0.4470
0.4399
0.4345
0.4381
0.4542
0.4776
0.5117
0.5476
0.5853
0.6230
0.6625
0.7074
0.7576
0.8079
0.8384
0.8402
0.8043
0.7253
0.6068
0.4722
0.3591
0.2855
0.2442
0.2226
0.2101
0.1957
0.1813
0.1741
0.1759
0.1903
0.2208
0.2585
0.2908
0.3106
0.3232
0.3303
0.3375
0.3519
0.3716
0.3950
0.4165
0.4273
0.4273
0.4201
0.4111
0.4093
0.4147
0.4291
0.4452
0.4524
0.4506
0.4417
0.4309
0.4237
0.4255
0.4345
0.4488
0.4596
0.4614
0.4560
0.4434
0.4327
0.4309
0.4381
0.4524
0.4650
0.4686
0.4650
0.4542
0.4434
0.4381
0.4417
0.4542
0.4686
0.4758
0.4740
0.4650
0.4524
0.4470
0.4488
0.4578
0.4686
0.4776
0.4811
0.4740
0.4632
0.4542
0.4542
0.4614
0.4740
0.4847
0.4883
0.4865
0.4758
0.4668
0.4632
0.4668
0.4776
0.4901
0.4955
0.4955
0.4865
0.4758
0.4686
0.4704
0.4811
0.4937
0.5045
0.5063
0.5009
0.4901
0.4829
0.4829
0.4901
0.5027
0.5135
0.5189
0.5153
0.5063
0.4973
0.4955
0.5009
0.5135
0.5260
0.5332
0.5314
0.5242
0.5117
0.5045
0.5063
0.5153
0.5296
0.5368
0.5368
0.5278
0.5153
0.5045
0.5027
0.5081
0.5189
0.5278
0.5278
0.5206
0.5063
0.4937
0.4865
0.4865
0.4937
0.5009
0.5009
0.4937
0.4811
0.4632
0.4524
0.4488
0.4524
0.4614
0.4632
0.4614
0.4488
0.4309
0.4183
0.4129
0.4165
0.4273
0.4345
0.4327
0.4255
0.4129
0.4022
0.3968
0.3986
0.4075
0.4183
0.4219
0.4183
0.4075
0.3950
0.3878
0.3896
0.3986
0.4093
0.4165
0.4165
0.4075
0.3950
0.3878
0.3896
0.3950
0.4057
0.4147
0.4165
0.4111
0.4004
0.3896
0.3860
0.3896
0.4004
0.4111
0.4147
0.4129
0.4039
0.3914
0.3860
0.3860
0.3968
0.4093
0.4165
0.4165
0.4075
0.3968
0.3896
0.3878
0.3950
0.4057
0.4165
0.4201
0.4147
0.4039
0.3932
0.3914
0.3950
0.4057
0.4183
0.4237
0.4219
0.4129
0.4022
0.3950
0.3986
0.4075
0.4201
0.4291
0.4291
0.4219
0.4093
0.4004
0.4004
0.4075
0.4201
0.4309
0.4327
0.4273
0.4165
0.4057
0.4039
0.4075
0.4201
0.4309
0.4363
0.4327
0.4237
0.4111
0.4057
0.4075
0.4165
0.4309
0.4381
0.4381
0.4309
0.4183
0.4111
0.4111
0.4183
0.4309
0.4417
0.4452
0.4363
0.4255
0.4147
0.4111
0.4165
0.4273
0.4381
0.4452
0.4381
0.4273
0.4165
0.4093
0.4111
0.4219
0.4345
0.4417
0.4417
0.4327
0.4201
0.4129
0.4129
0.4183
0.4309
0.4434
0.4470
0.4399
0.4273
0.4165
0.4129
0.4183
0.4309
0.4434
0.4488
0.4470
0.4345
0.4219
0.4147
0.4183
0.4273
0.4399
0.4488
0.4488
0.4381
0.4255
0.4183
0.4165
0.4237
0.4363
0.4470
0.4488
0.4399
0.4273
0.4165
0.4147
0.4201
0.4309
0.4452
0.4506
0.4470
0.4327
0.4219
0.4165
0.4183
0.4291
0.4399
0.4506
0.4506
0.4399
0.4273
0.4183
0.4183
0.4255
0.4381
0.4506
0.4524
0.4452
0.4327
0.4219
0.4183
0.4219
0.4327
0.4470
0.4524
0.4470
0.4345
0.4219
0.4165
0.4201
0.4291
0.4452
0.4524
0.4524
0.4417
0.4291
0.4201
0.4219
0.4291
0.4399
0.4524
0.4542
0.4470
0.4327
0.4237
0.4201
0.4255
0.4381
0.4506
0.4542
0.4506
0.4381
0.4255
0.4183
0.4219
0.4327
0.4470
0.4542
0.4524
0.4399
0.4273
0.4201
0.4201
0.4273
0.4399
0.4524
0.4560
0.4488
0.4345
0.4237
0.4219
0.4255
0.4381
0.4506
0.4560
0.4524
0.4399
0.4273
0.4219
0.4237
0.4345
0.4488
0.4560
0.4542
0.4470
0.4309
0.4219
0.4219
0.4309
0.4452
0.4542
0.4560
0.4488
0.4363
0.4255
0.4219
0.4273
0.4399
0.4524
0.4578
0.4524
0.4399
0.4273
0.4219
0.4237
0.4345
0.4488
0.4578
0.4560
0.4470
0.4309
0.4237
0.4237
0.4327
0.4488
0.4578
0.4596
0.4524
0.4381
0.4273
0.4255
0.4309
0.4452
0.4560
0.4578
0.4542
0.4434
0.4291
0.4237
0.4255
0.4363
0.4524
0.4596
0.4578
0.4488
0.4327
0.4255
0.4255
0.4345
0.4488
0.4578
0.4596
0.4524
0.4381
0.4291
0.4273
0.4327
0.4470
0.4578
0.4614
0.4578
0.4470
0.4345
0.4273
0.4309
0.4399
0.4542
0.4596
0.4578
0.4506
0.4345
0.4255
0.4255
0.4363
0.4542
0.4686
0.4722
0.4686
0.4596
0.4524
0.4506
0.4578
0.4704
0.4811
0.4865
0.4811
0.4668
0.4524
0.4452
0.4452
0.4524
0.4650
0.4704
0.4686
0.4578
0.4417
0.4309
0.4309
0.4381
0.4506
0.4578
0.4596
0.4506
0.4363
0.4255
0.4237
0.4291
0.4434
0.4542
0.4596
0.4542
0.4399
0.4291
0.4237
0.4273
0.4381
0.4542
0.4668
0.4740
0.4776
0.4811
0.4937
0.5171
0.5530
0.6050
0.6643
0.7199
0.7720
0.8151
0.8402
0.8456
0.8312
0.7882
0.7145
0.6086
0.4847
0.3716
0.2855
0.2280
0.1993
0.1885
0.1921
0.1993
0.2047
0.2083
0.2172
0.2370
0.2621
0.2926
0.3250
0.3519
0.3698
0.3788
0.3824
0.3842
0.3914
0.4022
0.4183
0.4345
0.4434
0.4399
0.4309
0.4201
0.4165
0.4237
0.4345
0.4506
0.4578
0.4578
0.4506
0.4363
0.4291
0.4309
0.4399
0.4560
0.4650
0.4668
0.4614
0.4488
0.4381
0.4363
0.4452
0.4560
0.4686
0.4722
0.4668
0.4560
0.4452
0.4399
0.4452
0.4578
0.4704
0.4776
0.4758
0.4668
0.4560
0.4488
0.4506
0.4596
0.4722
0.4811
0.4829
0.4758
0.4650
0.4560
0.4542
0.4614
0.4740
0.4847
0.4901
0.4865
0.4758
0.4650
0.4596
0.4632
0.4758
0.4883
0.4937
0.4919
0.4829
0.4704
0.4650
0.4668
0.4758
0.4901
0.4991
0.5009
0.4937
0.4811
0.4740
0.4722
0.4794
0.4901
0.5027
0.5081
0.5045
0.4955
0.4865
0.4829
0.4883
0.4991
0.5117
0.5189
0.5171
0.5081
0.4955
0.4901
0.4901
0.4991
0.5117
0.5189
0.5189
0.5135
0.5009
0.4901
0.4865
0.4919
0.5027
0.5117
0.5135
0.5063
0.4937
0.4811
0.4740
0.4740
0.4829
0.4919
0.4937
0.4883
0.4758
0.4578
0.4470
0.4452
0.4506
0.4596
0.4650
0.4632
0.4524
0.4345
0.4219
0.4183
0.4219
0.4327
0.4399
0.4399
0.4327
0.4219
0.4075
0.4022
0.4039
0.4147
0.4255
0.4309
0.4291
0.4183
0.4039
0.3968
0.3968
0.4057
0.4183
0.4273
0.4255
0.4183
0.4039
0.3950
0.3932
0.4004
0.4129
0.4219
0.4255
0.4201
0.4075
0.3968
0.3914
0.3950
0.4057
0.4183
0.4237
0.4219
0.4129
0.4004
0.3932
0.3932
0.4022
0.4165
0.4237
0.4237
0.4147
0.4022
0.3932
0.3914
0.4004
0.4129
0.4237
0.4273
0.4219
0.4111
0.4004
0.3968
0.4022
0.4111
0.4237
0.4309
0.4291
0.4183
0.4075
0.4004
0.4022
0.4111
0.4237
0.4327
0.4327
0.4255
0.4129
0.4039
0.4022
0.4093
0.4219
0.4327
0.4345
0.4291
0.4165
0.4075
0.4039
0.4075
0.4201
0.4327
0.4399
0.4363
0.4255
0.4129
0.4075
0.4075
0.4165
0.4273
0.4381
0.4381
0.4309
0.4183
0.4093
0.4093
0.4165
0.4291
0.4399
0.4434
0.4363
0.4255
0.4147
0.4093
0.4129
0.4237
0.4363
0.4417
0.4399
0.4291
0.4165
0.4093
0.4111
0.4201
0.4327
0.4399
0.4399
0.4309
0.4201
0.4093
0.4075
0.4147
0.4273
0.4399
0.4452
0.4363
0.4255
0.4129
0.4093
0.4147
0.4237
0.4363
0.4452
0.4399
0.4273
0.4147
0.4093
0.4129
0.4219
0.4345
0.4452
0.4452
0.4363
0.4237
0.4147
0.4129
0.4183
0.4291
0.4399
0.4434
0.4363
0.4237
0.4147
0.4111
0.4147
0.4255
0.4381
0.4452
0.4399
0.4291
0.4165
0.4111
0.4147
0.4237
0.4363
0.4452
0.4452
0.4345
0.4219
0.4129
0.4129
0.4183
0.4309
0.4417
0.4470
0.4399
0.4273
0.4165
0.4111
0.4147
0.4255
0.4381
0.4452
0.4399
0.4291
0.4201
0.4129
0.4147
0.4237
0.4363
0.4470
0.4470
0.4363
0.4237
0.4147
0.4147
0.4201
0.4327
0.4452
0.4488
0.4452
0.4309
0.4183
0.4147
0.4201
0.4309
0.4452
0.4506
0.4470
0.4345
0.4219
0.4165
0.4183
0.4273
0.4399
0.4488
0.4470
0.4381
0.4273
0.4165
0.4147
0.4219
0.4345
0.4452
0.4488
0.4399
0.4273
0.4165
0.4147
0.4201
0.4327
0.4488
0.4542
0.4488
0.4363
0.4219
0.4165
0.4183
0.4273
0.4399
0.4506
0.4506
0.4470
0.4363
0.4309
0.4345
0.4470
0.4614
0.4722
0.4740
0.4704
0.4614
0.4506
0.4470
0.4506
0.4596
0.4668
0.4686
0.4632
0.4506
0.4345
0.4273
0.4273
0.4363
0.4488
0.4560
0.4542
0.4399
0.4255
0.4147
0.4147
0.4219
0.4327
0.4452
0.4488
0.4452
0.4309
0.4219
0.4165
0.4219
0.4327
0.4452
0.4506
0.4470
0.4345
0.4255
0.4255
0.4363
0.4614
0.4901
0.5189
0.5440
0.5673
0.5943
0.6320
0.6840
0.7451
0.8079
0.8474
0.8492
0.8133
0.7343
0.6230
0.5009
0.3950
0.3250
0.2801
0.2478
0.2208
0.1957
0.1759
0.1706
0.1813
0.2047
0.2388
0.2693
0.2908
0.3034
0.3106
0.3178
0.3339
0.3573
0.3842
0.4075
0.4201
0.4201
0.4111
0.4057
0.4039
0.4093
0.4237
0.4381
0.4470
0.4452
0.4345
0.4237
0.4219
0.4255
0.4345
0.4506
0.4596
0.4596
0.4524
0.4381
0.4309
0.4309
0.4399
0.4560
0.4668
0.4686
0.4632
0.4524
0.4399
0.4381
0.4452
0.4578
0.4686
0.4740
0.4722
0.4632
0.4524
0.4470
0.4488
0.4596
0.4740
0.4811
0.4811
0.4722
0.4614
0.4542
0.4542
0.4632
0.4758
0.4865
0.4901
0.4829
0.4722
0.4632
0.4596
0.4650
0.4776
0.4883
0.4937
0.4919
0.4811
0.4704
0.4650
0.4686
0.4794
0.4937
0.5027
0.5027
0.4955
0.4847
0.4758
0.4776
0.4847
0.4991
0.5099
0.5117
0.5063
0.4955
0.4865
0.4865
0.4919
0.5045
0.5171
0.5224
0.5206
0.5117
0.5009
0.4973
0.5027
0.5117
0.5242
0.5314
0.5296
0.5224
0.5099
0.5027
0.5009
0.5081
0.5206
0.5296
0.5296
0.5224
0.5117
0.4991
0.4937
0.4973
0.5063
0.5153
0.5153
0.5063
0.4919
0.4758
0.4668
0.4650
0.4704
0.4776
0.4794
0.4740
0.4614
0.4417
0.4309
0.4273
0.4309
0.4417
0.4488
0.4470
0.4363
0.4201
0.4093
0.4039
0.4075
0.4165
0.4273
0.4309
0.4255
0.4147
0.4022
0.3950
0.3986
0.4075
0.4183
0.4237
0.4201
0.4111
0.4004
0.3932
0.3914
0.3986
0.4111
0.4183
0.4201
0.4111
0.3986
0.3896
0.3878
0.3932
0.4039
0.4147
0.4201
0.4147
0.4039
0.3932
0.3878
0.3914
0.4022
0.4129
0.4201
0.4201
0.4111
0.3986
0.3896
0.3914
0.3986
0.4111
0.4201
0.4219
0.4165
0.4039
0.3950
0.3914
0.3986
0.4093
0.4201
0.4237
0.4201
0.4111
0.3986
0.3932
0.3968
0.4057
0.4183
0.4273
0.4255
0.4165
0.4039
0.3968
0.3986
0.4075
0.4201
0.4291
0.4309
0.4237
0.4129
0.4022
0.4004
0.4075
0.4201
0.4309
0.4363
0.4327
0.4219
0.4111
0.4057
0.4093
0.4201
0.4327
0.4381
0.4345
0.4255
0.4129
0.4057
0.4057
0.4129
0.4255
0.4363
0.4363
0.4291
0.4165
0.4075
0.4057
0.4111
0.4219
0.4345
0.4399
0.4363
0.4255
0.4129
0.4075
0.4111
0.4219
0.4327
0.4399
0.4381
0.4291
0.4165
0.4075
0.4093
0.4183
0.4309
0.4399
0.4399
0.4309
0.4183
0.4093
0.4075
0.4129
0.4255
0.4381
0.4417
0.4363
0.4237
0.4129
0.4093
0.4111
0.4219
0.4345
0.4434
0.4417
0.4327
0.4201
0.4111
0.4111
0.4219
0.4345
0.4452
0.4470
0.4381
0.4255
0.4147
0.4129
0.4201
0.4345
0.4470
0.4524
0.4470
0.4327
0.4201
0.4147
0.4183
0.4291
0.4399
0.4488
0.4470
0.4363
0.4291
0.4273
0.4309
0.4452
0.4596
0.4722
0.4740
0.4686
0.4560
0.4488
0.4488
0.4560
0.4668
0.4758
0.4776
0.4722
0.4578
0.4399
0.4327
0.4345
0.4452
0.4560
0.4596
0.4560
0.4452
0.4273
0.4183
0.4165
0.4237
0.4363
0.4452
0.4452
0.4363
0.4237
0.4147
0.4129
0.4183
0.4309
0.4452
0.4488
0.4452
0.4309
0.4201
0.4183
0.4255
0.4452
0.4686
0.4901
0.5081
0.5224
0.5404
0.5727
0.6212
0.6840
0.7504
0.8079
0.8420
0.8438
0.8097
0.7433
0.6517
0.5404
0.4345
0.3537
0.2944
0.2460
0.2083
0.1813
0.1652
0.1670
0.1813
0.2047
0.2280
0.2496
0.2639
0.2747
0.2890
0.3070
0.3303
0.3591
0.3842
0.4004
0.4075
0.4039
0.4004
0.4039
0.4147
0.4291
0.4452
0.4506
0.4488
0.4363
0.4255
0.4219
0.4273
0.4399
0.4542
0.4614
0.4614
0.4524
0.4381
0.4309
0.4327
0.4452
0.4596
0.4686
0.4704
0.4632
0.4506
0.4417
0.4399
0.4488
0.4614
0.4722
0.4776
0.4722
0.4614
0.4488
0.4470
0.4524
0.4650
0.4776
0.4829
0.4829
0.4740
0.4614
0.4560
0.4578
0.4668
0.4794
0.4883
0.4901
0.4847
0.4740
0.4650
0.4650
0.4722
0.4847
0.4937
0.4973
0.4919
0.4829
0.4722
0.4686
0.4740
0.4847
0.4973
0.5063
0.5045
0.4955
0.4847
0.4794
0.4829
0.4937
0.5063
0.5171
0.5189
0.5135
0.5027
0.4955
0.4955
0.5045
0.5189
0.5296
0.5350
0.5332
0.5224
0.5135
0.5099
0.5153
0.5260
0.5386
0.5440
0.5422
0.5332
0.5206
0.5153
0.5171
0.5242
0.5368
0.5458
0.5458
0.5368
0.5224
0.5135
0.5117
0.5153
0.5224
0.5278
0.5278
0.5189
0.5027
0.4865
0.4776
0.4776
0.4829
0.4883
0.4883
0.4811
0.4668
0.4488
0.4363
0.4327
0.4381
0.4488
0.4524
0.4488
0.4363
0.4219
0.4111
0.4075
0.4111
0.4237
0.4327
0.4327
0.4255
0.4129
0.4004
0.3968
0.4004
0.4093
0.4219
0.4273
0.4237
0.4129
0.4004
0.3932
0.3950
0.4039
0.4147
0.4237
0.4237
0.4147
0.4022
0.3932
0.3914
0.3986
0.4093
0.4201
0.4219
0.4165
0.4039
0.3932
0.3896
0.3914
0.4022
0.4147
0.4219
0.4183
0.4075
0.3950
0.3896
0.3896
0.3986
0.4111
0.4201
0.4219
0.4147
0.4022
0.3932
0.3932
0.4004
0.4147
0.4237
0.4273
0.4219
0.4111
0.4004
0.3968
0.4004
0.4111
0.4219
0.4273
0.4255
0.4165
0.4039
0.3986
0.4004
0.4093
0.4237
0.4309
0.4309
0.4219
0.4111
0.4022
0.4022
0.4093
0.4219
0.4327
0.4363
0.4309
0.4201
0.4093
0.4057
0.4093
0.4201
0.4327
0.4399
0.4363
0.4273
0.4147
0.4075
0.4093
0.4201
0.4345
0.4434
0.4452
0.4345
0.4219
0.4111
0.4093
0.4165
0.4291
0.4399
0.4417
0.4345
0.4219
0.4129
0.4093
0.4129
0.4255
0.4381
0.4452
0.4399
0.4291
0.4183
0.4111
0.4129
0.4219
0.4345
0.4452
0.4452
0.4345
0.4219
0.4129
0.4129
0.4201
0.4327
0.4452
0.4488
0.4399
0.4273
0.4165
0.4129
0.4183
0.4309
0.4452
0.4506
0.4470
0.4327
0.4219
0.4147
0.4165
0.4255
0.4381
0.4488
0.4470
0.4363
0.4237
0.4165
0.4147
0.4219
0.4345
0.4470
0.4506
0.4434
0.4309
0.4201
0.4165
0.4219
0.4327
0.4452
0.4506
0.4470
0.4345
0.4219
0.4165
0.4183
0.4273
0.4417
0.4506
0.4506
0.4434
0.4291
0.4201
0.4183
0.4255
0.4381
0.4488
0.4506
0.4452
0.4291
0.4183
0.4147
0.4183
0.4309
0.4452
0.4506
0.4470
0.4345
0.4219
0.4165
0.4201
0.4291
0.4399
0.4506
0.4488
0.4381
0.4273
0.4183
0.4183
0.4255
0.4381
0.4488
0.4506
0.4452
0.4327
0.4219
0.4201
0.4237
0.4345
0.4470
0.4524
0.4488
0.4345
0.4219
0.4165
0.4183
0.4273
0.4417
0.4506
0.4506
0.4399
0.4273
0.4183
0.4183
0.4255
0.4381
0.4488
0.4524
0.4452
0.4309
0.4201
0.4183
0.4255
0.4381
0.4524
0.4578
0.4542
0.4434
0.4291
0.4219
0.4237
0.4345
0.4488
0.4542
0.4506
0.4399
0.4291
0.4255
0.4291
0.4417
0.4596
0.4722
0.4758
0.4704
0.4596
0.4506
0.4488
0.4560
0.4686
0.4794
0.4829
0.4758
0.4632
0.4470
0.4363
0.4363
0.4470
0.4578
0.4632
0.4596
0.4506
0.4327
0.4219
0.4183
0.4255
0.4381
0.4488
0.4506
0.4452
0.4345
0.4237
0.4183
0.4237
0.4345
0.4470
0.4524
0.4488
0.4363
0.4255
0.4219
0.4273
0.4470
0.4704
0.4919
0.5099
0.5242
0.5404
0.5709
0.6194
0.6822
0.7469
0.8079
0.8528
0.8654
0.8438
0.7917
0.7110
0.6050
0.4901
0.3914
0.3160
0.2585
0.2154
0.1813
0.1616
0.1598
0.1759
0.1993
0.2244
0.2496
0.2657
0.2765
0.2890
0.3070
0.3321
0.3609
0.3860
0.4022
0.4093
0.4057
0.4004
0.4022
0.4111
0.4237
0.4381
0.4470
0.4452
0.4363
0.4255
0.4201
0.4237
0.4345
0.4506
0.4596
0.4596
0.4524
0.4381
0.4291
0.4291
0.4381
0.4524
0.4632
0.4650
0.4596
0.4488
0.4381
0.4345
0.4399
0.4542
0.4668
0.4722
0.4704
0.4596
0.4470
0.4434
0.4470
0.4578
0.4704
0.4776
0.4776
0.4704
0.4578
0.4506
0.4524
0.4614
0.4740
0.4829
0.4865
0.4811
0.4686
0.4578
0.4560
0.4632
0.4758
0.4865
0.4919
0.4883
0.4794
0.4686
0.4650
0.4668
0.4776
0.4901
0.4991
0.4991
0.4901
0.4794
0.4722
0.4722
0.4811
0.4937
0.5045
0.5081
0.5027
0.4919
0.4829
0.4811
0.4883
0.5009
0.5117
0.5189
0.5153
0.5063
0.4955
0.4919
0.4973
0.5063
0.5189
0.5260
0.5260
0.5171
0.5045
0.4973
0.4973
0.5063
0.5171
0.5260
0.5260
0.5171
0.5045
0.4937
0.4901
0.4937
0.5045
0.5135
0.5153
0.5081
0.4937
0.4794
0.4704
0.4704
0.4776
0.4847
0.4883
0.4829
0.4704
0.4542
0.4399
0.4363
0.4399
0.4506
0.4578
0.4560
0.4470
0.4291
0.4165
0.4111
0.4147
0.4237
0.4327
0.4345
0.4273
0.4147
0.4022
0.3950
0.3968
0.4075
0.4183
0.4237
0.4237
0.4129
0.4004
0.3914
0.3914
0.3986
0.4111
0.4201
0.4219
0.4147
0.4022
0.3914
0.3896
0.3950
0.4075
0.4183
0.4219
0.4165
0.4057
0.3950
0.3896
0.3932
0.4039
0.4165
0.4219
0.4201
0.4111
0.4004
0.3932
0.3932
0.4004
0.4129
0.4219
0.4219
0.4147
0.4039
0.3950
0.3932
0.3968
0.4093
0.4201
0.4255
0.4219
0.4111
0.4004
0.3968
0.4004
0.4111
0.4237
0.4291
0.4273
0.4183
0.4057
0.3986
0.4004
0.4075
0.4219
0.4309
0.4327
0.4273
0.4165
0.4057
0.4022
0.4075
0.4201
0.4327
0.4363
0.4309
0.4201
0.4075
0.4039
0.4075
0.4165
0.4309
0.4381
0.4363
0.4273
0.4147
0.4075
0.4093
0.4183
0.4309
0.4399
0.4399
0.4327
0.4201
0.4093
0.4075
0.4129
0.4255
0.4363
0.4417
0.4363
0.4255
0.4129
0.4075
0.4111
0.4219
0.4345
0.4399
0.4381
0.4273
0.4165
0.4093
0.4093
0.4165
0.4291
0.4399
0.4417
0.4327
0.4201
0.4111
0.4111
0.4165
0.4273
0.4399
0.4452
0.4399
0.4291
0.4183
0.4129
0.4165
0.4273
0.4399
0.4488
0.4470
0.4363
0.4237
0.4147
0.4147
0.4237
0.4381
0.4470
0.4470
0.4381
0.4255
0.4147
0.4129
0.4183
0.4309
0.4452
0.4506
0.4452
0.4309
0.4201
0.4147
0.4183
0.4273
0.4399
0.4488
0.4470
0.4363
0.4237
0.4165
0.4183
0.4273
0.4399
0.4506
0.4524
0.4434
0.4291
0.4183
0.4147
0.4201
0.4327
0.4470
0.4524
0.4506
0.4434
0.4345
0.4327
0.4381
0.4506
0.4650
0.4740
0.4740
0.4650
0.4506
0.4417
0.4399
0.4470
0.4578
0.4650
0.4632
0.4542
0.4381
0.4273
0.4237
0.4309
0.4417
0.4524
0.4524
0.4470
0.4327
0.4201
0.4129
0.4147
0.4255
0.4363
0.4434
0.4417
0.4327
0.4201
0.4111
0.4129
0.4219
0.4345
0.4452
0.4470
0.4363
0.4273
0.4219
0.4291
0.4506
0.4776
0.5081
0.5386
0.5673
0.5978
0.6373
0.6858
0.7451
0.8025
0.8420
0.8492
0.8169
0.7415
0.6284
0.4991
0.3860
0.3124
0.2675
0.2388
0.2172
0.1957
0.1759
0.1652
0.1706
0.1885
0.2208
0.2549
0.2819
0.2962
0.3052
0.3124
0.3250
0.3429
0.3698
0.3950
0.4129
0.4201
0.4165
0.4093
0.4057
0.4111
0.4219
0.4363
0.4488
0.4506
0.4452
0.4327
0.4237
0.4237
0.4309
0.4470
0.4596
0.4632
0.4596
0.4488
0.4363
0.4309
0.4363
0.4506
0.4632
0.4704
0.4668
0.4578
0.4452
0.4363
0.4381
0.4488
0.4632
0.4722
0.4740
0.4668
0.4560
0.4470
0.4452
0.4524
0.4650
0.4776
0.4811
0.4758
0.4650
0.4542
0.4506
0.4560
0.4686
0.4829
0.4883
0.4865
0.4794
0.4668
0.4596
0.4614
0.4722
0.4847
0.4937
0.4937
0.4865
0.4758
0.4686
0.4686
0.4758
0.4883
0.4991
0.5027
0.4991
0.4883
0.4811
0.4776
0.4811
0.4937
0.5081
0.5153
0.5135
0.5063
0.4955
0.4919
0.4955
0.5063
0.5189
0.5278
0.5296
0.5242
0.5135
0.5045
0.5045
0.5117
0.5242
0.5332
0.5368
0.5332
0.5224
0.5117
0.5081
0.5117
0.5206
0.5314
0.5368
0.5314
0.5206
0.5063
0.4973
0.4955
0.5009
0.5099
0.5153
0.5117
0.4991
0.4811
0.4686
0.4614
0.4632
0.4686
0.4740
0.4740
0.4632
0.4470
0.4291
0.4219
0.4219
0.4309
0.4399
0.4434
0.4381
0.4255
0.4111
0.4022
0.4004
0.4075
0.4183
0.4255
0.4237
0.4147
0.4022
0.3914
0.3896
0.3950
0.4075
0.4183
0.4201
0.4147
0.4039
0.3932
0.3878
0.3914
0.4004
0.4129
0.4183
0.4147
0.4057
0.3932
0.3860
0.3860
0.3950
0.4075
0.4147
0.4147
0.4075
0.3950
0.3860
0.3842
0.3896
0.4022
0.4129
0.4165
0.4111
0.4004
0.3896
0.3860
0.3896
0.4022
0.4129
0.4183
0.4165
0.4075
0.3932
0.3878
0.3914
0.3986
0.4111
0.4201
0.4201
0.4129
0.4004
0.3914
0.3932
0.4004
0.4111
0.4219
0.4237
0.4201
0.4093
0.3986
0.3950
0.4004
0.4111
0.4237
0.4291
0.4273
0.4183
0.4057
0.4004
0.4004
0.4093
0.4237
0.4327
0.4327
0.4237
0.4111
0.4039
0.4039
0.4093
0.4219
0.4309
0.4345
0.4291
0.4183
0.4057
0.4039
0.4075
0.4201
0.4327
0.4381
0.4345
0.4237
0.4111
0.4057
0.4075
0.4165
0.4291
0.4363
0.4363
0.4291
0.4165
0.4075
0.4075
0.4129
0.4255
0.4363
0.4381
0.4309
0.4201
0.4093
0.4039
0.4093
0.4201
0.4327
0.4399
0.4363
0.4255
0.4129
0.4075
0.4111
0.4201
0.4327
0.4417
0.4434
0.4327
0.4201
0.4111
0.4111
0.4183
0.4309
0.4417
0.4470
0.4417
0.4309
0.4237
0.4237
0.4327
0.4506
0.4632
0.4686
0.4668
0.4578
0.4452
0.4381
0.4399
0.4506
0.4632
0.4686
0.4686
0.4578
0.4417
0.4309
0.4273
0.4309
0.4452
0.4542
0.4560
0.4506
0.4345
0.4201
0.4147
0.4183
0.4291
0.4417
0.4488
0.4452
0.4327
0.4201
0.4129
0.4147
0.4237
0.4381
0.4470
0.4452
0.4363
0.4237
0.4165
0.4165
0.4273
0.4506
0.4722
0.4901
0.5045
0.5171
0.5368
0.5691
0.6158
0.6768
0.7415
0.7971
0.8294
0.8312
0.7971
0.7343
0.6463
0.5422
0.4399
0.3609
0.2980
0.2460
0.2047
0.1795
0.1670
0.1706
0.1867
0.2065
0.2226
0.2388
0.2496
0.2603
0.2765
0.2998
0.3285
0.3573
0.3806
0.3932
0.3968
0.3968
0.3986
0.4039
0.4183
0.4345
0.4470
0.4488
0.4417
0.4291
0.4219
0.4237
0.4327
0.4488
0.4596
0.4632
0.4578
0.4470
0.4345
0.4309
0.4363
0.4524
0.4650
0.4704
0.4686
0.4596
0.4488
0.4399
0.4434
0.4542
0.4668
0.4758
0.4758
0.4686
0.4578
0.4506
0.4506
0.4578
0.4722
0.4829
0.4865
0.4794
0.4686
0.4578
0.4560
0.4614
0.4722
0.4847
0.4901
0.4865
0.4776
0.4668
0.4632
0.4668
0.4758
0.4901
0.4991
0.4991
0.4919
0.4811
0.4722
0.4740
0.4811
0.4955
0.5045
0.5081
0.5045
0.4937
0.4847
0.4829
0.4883
0.5009
0.5153
0.5224
0.5206
0.5117
0.5027
0.4991
0.5009
0.5117
0.5278
0.5368
0.5386
0.5332
0.5224
0.5153
0.5153
0.5260
0.5386
0.5494
0.5512
0.5458
0.5332
0.5224
0.5189
0.5242
0.5350
0.5440
0.5476
0.5422
0.5314
0.5189
0.5099
0.5099
0.5171
0.5260
0.5278
0.5224
0.5081
0.4919
0.4794
0.4740
0.4758
0.4811
0.4865
0.4847
0.4722
0.4542
0.4363
0.4291
0.4309
0.4381
0.4488
0.4506
0.4452
0.4291
0.4147
0.4057
0.4075
0.4147
0.4255
0.4309
0.4273
0.4183
0.4039
0.3950
0.3932
0.4004
0.4111
0.4201
0.4219
0.4147
0.4022
0.3932
0.3896
0.3932
0.4039
0.4147
0.4201
0.4165
0.4057
0.3932
0.3878
0.3914
0.4004
0.4129
0.4201
0.4183
0.4093
0.3968
0.3878
0.3878
0.3950
0.4075
0.4165
0.4183
0.4129
0.4004
0.3896
0.3860
0.3914
0.4039
0.4147
0.4201
0.4147
0.4039
0.3932
0.3878
0.3914
0.4022
0.4147
0.4237
0.4237
0.4147
0.4022
0.3950
0.3950
0.4039
0.4147
0.4237
0.4273
0.4201
0.4093
0.4004
0.3986
0.4039
0.4165
0.4291
0.4327
0.4309
0.4201
0.4093
0.4022
0.4057
0.4165
0.4273
0.4345
0.4327
0.4237
0.4129
0.4057
0.4057
0.4129
0.4255
0.4363
0.4381
0.4309
0.4183
0.4075
0.4057
0.4111
0.4219
0.4345
0.4381
0.4345
0.4237
0.4111
0.4075
0.4093
0.4201
0.4327
0.4399
0.4399
0.4309
0.4183
0.4111
0.4111
0.4183
0.4309
0.4399
0.4417
0.4345
0.4237
0.4147
0.4111
0.4165
0.4291
0.4399
0.4470
0.4399
0.4273
0.4165
0.4093
0.4111
0.4219
0.4345
0.4452
0.4434
0.4327
0.4219
0.4147
0.4147
0.4237
0.4345
0.4470
0.4488
0.4399
0.4273
0.4165
0.4129
0.4201
0.4327
0.4452
0.4488
0.4434
0.4327
0.4255
0.4237
0.4327
0.4488
0.4632
0.4722
0.4722
0.4632
0.4506
0.4417
0.4417
0.4506
0.4632
0.4722
0.4722
0.4632
0.4488
0.4345
0.4309
0.4327
0.4452
0.4542
0.4578
0.4524
0.4381
0.4255
0.4165
0.4183
0.4273
0.4381
0.4452
0.4417
0.4327
0.4201
0.4111
0.4111
0.4201
0.4345
0.4452
0.4470
0.4363
0.4237
0.4129
0.4111
0.4201
0.4381
0.4614
0.4776
0.4901
0.5009
0.5153
0.5440
0.5871
0.6427
0.7074
0.7684
0.8187
0.8420
0.8348
0.8007
0.7397
0.6499
0.5422
0.4327
0.3465
0.2747
0.2190
0.1795
0.1598
0.1562
0.1688
0.1867
0.2029
0.2190
0.2334
0.2460
0.2639
0.2855
0.3160
0.3465
0.3716
0.3860
0.3932
0.3932
0.3950
0.3986
0.4111
0.4273
0.4399
0.4452
0.4399
0.4291
0.4201
0.4201
0.4291
0.4417
0.4560
0.4614
0.4578
0.4488
0.4345
0.4309
0.4345
0.4488
0.4614
0.4686
0.4668
0.4596
0.4488
0.4399
0.4399
0.4506
0.4632
0.4740
0.4758
0.4686
0.4578
0.4488
0.4470
0.4524
0.4650
0.4776
0.4811
0.4776
0.4686
0.4578
0.4524
0.4578
0.4686
0.4811
0.4883
0.4883
0.4794
0.4686
0.4614
0.4632
0.4722
0.4865
0.4937
0.4955
0.4901
0.4794
0.4704
0.4704
0.4758
0.4883
0.5009
0.5045
0.5027
0.4919
0.4829
0.4794
0.4829
0.4955
0.5081
0.5171
0.5171
0.5081
0.4973
0.4919
0.4955
0.5027
0.5171
0.5278
0.5314
0.5260
0.5153
0.5081
0.5063
0.5135
0.5278
0.5386
0.5440
0.5404
0.5296
0.5189
0.5135
0.5171
0.5260
0.5368
0.5422
0.5386
0.5278
0.5153
0.5063
0.5045
0.5099
0.5189
0.5242
0.5224
0.5099
0.4937
0.4811
0.4740
0.4740
0.4794
0.4847
0.4847
0.4758
0.4596
0.4399
0.4309
0.4291
0.4363
0.4470
0.4506
0.4452
0.4309
0.4165
0.4075
0.4057
0.4129
0.4237
0.4291
0.4273
0.4201
0.4075
0.3968
0.3932
0.3968
0.4075
0.4183
0.4219
0.4165
0.4057
0.3932
0.3878
0.3896
0.4004
0.4111
0.4183
0.4165
0.4075
0.3950
0.3860
0.3878
0.3968
0.4093
0.4165
0.4165
0.4093
0.3986
0.3878
0.3860
0.3932
0.4039
0.4147
0.4165
0.4129
0.4039
0.3932
0.3878
0.3914
0.4004
0.4129
0.4201
0.4183
0.4075
0.3950
0.3878
0.3896
0.4004
0.4129
0.4219
0.4237
0.4165
0.4039
0.3968
0.3950
0.4022
0.4129
0.4237
0.4291
0.4237
0.4129
0.4022
0.3968
0.4022
0.4129
0.4255
0.4327
0.4309
0.4219
0.4093
0.4022
0.4022
0.4129
0.4255
0.4345
0.4345
0.4255
0.4129
0.4039
0.4022
0.4093
0.4219
0.4327
0.4363
0.4309
0.4201
0.4075
0.4039
0.4093
0.4183
0.4309
0.4381
0.4363
0.4273
0.4129
0.4057
0.4075
0.4165
0.4291
0.4381
0.4399
0.4327
0.4183
0.4093
0.4075
0.4129
0.4273
0.4381
0.4399
0.4345
0.4219
0.4111
0.4075
0.4111
0.4219
0.4345
0.4399
0.4381
0.4273
0.4147
0.4093
0.4093
0.4183
0.4309
0.4417
0.4417
0.4327
0.4201
0.4111
0.4111
0.4183
0.4309
0.4417
0.4470
0.4399
0.4291
0.4165
0.4111
0.4147
0.4255
0.4381
0.4452
0.4417
0.4327
0.4201
0.4129
0.4129
0.4219
0.4345
0.4452
0.4452
0.4345
0.4219
0.4147
0.4129
0.4201
0.4327
0.4452
0.4488
0.4434
0.4291
0.4183
0.4129
0.4183
0.4327
0.4506
0.4632
0.4668
0.4596
0.4488
0.4417
0.4452
0.4542
0.4686
0.4776
0.4794
0.4740
0.4614
0.4506
0.4470
0.4506
0.4596
0.4686
0.4686
0.4596
0.4452
0.4291
0.4237
0.4237
0.4327
0.4452
0.4488
0.4434
0.4309
0.4183
0.4111
0.4147
0.4237
0.4345
0.4452
0.4470
0.4363
0.4237
0.4147
0.4129
0.4201
0.4327
0.4452
0.4506
0.4506
0.4470
0.4488
0.4596
0.4847
0.5206
0.5637
0.6104
0.6571
0.7020
0.7415
0.7828
0.8187
0.8348
0.8241
0.7720
0.6750
0.5476
0.4147
0.3142
0.2496
0.2118
0.1957
0.1903
0.1867
0.1813
0.1777
0.1795
0.1975
0.2280
0.2621
0.2944
0.3178
0.3339
0.3411
0.3447
0.3537
0.3716
0.3932
0.4129
0.4273
0.4309
0.4273
0.4183
0.4111
0.4111
0.4201
0.4345
0.4488
0.4542
0.4488
0.4345
0.4255
0.4237
0.4273
0.4399
0.4542
0.4614
0.4596
0.4506
0.4363
0.4309
0.4327
0.4470
0.4614
0.4686
0.4704
0.4632
0.4524
0.4399
0.4399
0.4488
0.4632
0.4740
0.4758
0.4722
0.4632
0.4524
0.4488
0.4524
0.4632
0.4758
0.4811
0.4776
0.4686
0.4578
0.4524
0.4560
0.4650
0.4794
0.4883
0.4901
0.4829
0.4722
0.4632
0.4632
0.4722
0.4865
0.4973
0.5009
0.4955
0.4847
0.4740
0.4704
0.4758
0.4883
0.5009
0.5081
0.5063
0.4973
0.4865
0.4811
0.4847
0.4955
0.5099
0.5189
0.5189
0.5117
0.5027
0.4955
0.4955
0.5045
0.5171
0.5278
0.5332
0.5260
0.5153
0.5063
0.5045
0.5081
0.5189
0.5296
0.5350
0.5314
0.5206
0.5099
0.5009
0.5027
0.5099
0.5206
0.5260
0.5242
0.5135
0.4973
0.4847
0.4794
0.4811
0.4901
0.4937
0.4919
0.4811
0.4650
0.4506
0.4399
0.4399
0.4488
0.4560
0.4578
0.4506
0.4345
0.4201
0.4111
0.4093
0.4147
0.4255
0.4309
0.4309
0.4219
0.4075
0.3968
0.3950
0.4022
0.4129
0.4219
0.4237
0.4183
0.4057
0.3932
0.3896
0.3932
0.4039
0.4147
0.4183
0.4147
0.4039
0.3914
0.3842
0.3860
0.3950
0.4093
0.4165
0.4147
0.4057
0.3932
0.3842
0.3842
0.3914
0.4039
0.4129
0.4165
0.4111
0.3986
0.3878
0.3860
0.3896
0.4004
0.4129
0.4183
0.4165
0.4057
0.3932
0.3878
0.3914
0.4022
0.4129
0.4201
0.4201
0.4129
0.4004
0.3932
0.3914
0.3986
0.4093
0.4201
0.4219
0.4147
0.4039
0.3950
0.3914
0.3968
0.4075
0.4201
0.4255
0.4237
0.4129
0.4022
0.3968
0.4004
0.4093
0.4219
0.4291
0.4291
0.4219
0.4093
0.4004
0.4004
0.4093
0.4219
0.4327
0.4345
0.4273
0.4165
0.4039
0.4004
0.4039
0.4165
0.4291
0.4327
0.4291
0.4183
0.4075
0.4022
0.4039
0.4129
0.4255
0.4345
0.4345
0.4255
0.4129
0.4057
0.4057
0.4111
0.4237
0.4345
0.4381
0.4327
0.4201
0.4111
0.4075
0.4129
0.4237
0.4363
0.4399
0.4363
0.4255
0.4129
0.4075
0.4093
0.4183
0.4327
0.4399
0.4399
0.4309
0.4183
0.4093
0.4093
0.4165
0.4309
0.4399
0.4434
0.4345
0.4219
0.4111
0.4075
0.4111
0.4237
0.4363
0.4434
0.4381
0.4291
0.4165
0.4129
0.4147
0.4255
0.4381
0.4470
0.4470
0.4363
0.4237
0.4129
0.4111
0.4201
0.4327
0.4452
0.4452
0.4381
0.4273
0.4165
0.4129
0.4165
0.4291
0.4417
0.4488
0.4452
0.4309
0.4201
0.4147
0.4165
0.4255
0.4399
0.4488
0.4488
0.4381
0.4255
0.4183
0.4165
0.4237
0.4363
0.4488
0.4506
0.4452
0.4291
0.4183
0.4147
0.4183
0.4309
0.4434
0.4488
0.4452
0.4345
0.4219
0.4147
0.4165
0.4273
0.4434
0.4524
0.4506
0.4399
0.4291
0.4237
0.4291
0.4399
0.4596
0.4722
0.4758
0.4704
0.4596
